starting
0, 329, 329, 328, 329,
1, 330, 329, 328, 329,
2, 330, 329, 328, 330,
4, 330, 330, 329, 330,
5, 331, 331, 329, 331,
7, 331, 330, 329, 331,
8, 330, 330, 329, 330,
10, 331, 331, 329, 330,
12, 331, 331, 329, 330,
14, 331, 330, 330, 330,
16, 331, 331, 330, 330,
19, 331, 330, 330, 331,
21, 331, 330, 330, 330,
23, 331, 331, 330, 330,
25, 331, 330, 330, 330,
27, 331, 330, 330, 330,
29, 331, 330, 331, 330,
32, 331, 330, 330, 330,
34, 332, 330, 330, 330,
36, 332, 330, 330, 330,
38, 331, 331, 331, 331,
40, 332, 331, 331, 330,
43, 332, 331, 330, 330,
46, 331, 331, 331, 331,
48, 332, 331, 331, 330,
50, 332, 330, 331, 330,
52, 331, 331, 331, 330,
54, 331, 331, 330, 330,
56, 331, 330, 331, 330,
58, 332, 330, 330, 329,
61, 331, 330, 331, 329,
63, 331, 330, 331, 330,
65, 331, 330, 331, 330,
67, 331, 330, 331, 330,
69, 332, 330, 331, 330,
71, 331, 330, 332, 330,
74, 331, 330, 331, 330,
76, 332, 330, 330, 330,
78, 331, 330, 331, 330,
80, 331, 329, 331, 330,
82, 332, 330, 332, 329,
84, 332, 330, 331, 330,
88, 331, 330, 332, 330,
90, 331, 330, 332, 330,
92, 332, 328, 332, 330,
94, 331, 330, 332, 330,
96, 331, 330, 331, 329,
98, 332, 330, 331, 330,
100, 332, 330, 332, 330,
103, 332, 330, 332, 330,
105, 332, 330, 333, 330,
107, 333, 330, 332, 329,
109, 333, 330, 332, 331,
112, 332, 330, 332, 329,
114, 332, 330, 332, 330,
116, 331, 330, 332, 331,
118, 332, 330, 332, 330,
121, 331, 330, 332, 330,
123, 332, 330, 331, 329,
125, 332, 330, 332, 330,
128, 332, 330, 332, 330,
131, 333, 330, 332, 330,
133, 332, 330, 332, 330,
135, 332, 331, 332, 330,
137, 332, 330, 333, 330,
140, 332, 331, 332, 330,
142, 333, 331, 335, 330,
144, 333, 330, 333, 330,
146, 331, 331, 332, 330,
149, 331, 331, 333, 330,
151, 332, 331, 332, 330,
153, 332, 331, 332, 330,
155, 332, 330, 332, 330,
158, 332, 331, 332, 334,
160, 332, 331, 332, 329,
162, 332, 331, 332, 329,
164, 332, 331, 333, 329,
166, 332, 331, 333, 330,
169, 332, 331, 333, 330,
172, 332, 331, 333, 330,
174, 332, 331, 332, 330,
176, 332, 331, 333, 331,
179, 333, 332, 332, 331,
181, 333, 331, 333, 330,
183, 333, 332, 333, 329,
185, 332, 331, 333, 330,
188, 333, 331, 333, 330,
190, 332, 331, 333, 331,
192, 332, 331, 334, 331,
194, 332, 331, 333, 331,
197, 332, 331, 334, 331,
199, 332, 331, 334, 330,
201, 332, 332, 333, 330,
203, 331, 332, 333, 331,
206, 333, 331, 333, 330,
208, 332, 332, 334, 330,
210, 332, 332, 333, 330,
212, 332, 332, 333, 329,
216, 331, 331, 333, 331,
218, 331, 331, 333, 330,
220, 332, 331, 333, 330,
222, 331, 332, 333, 331,
225, 332, 332, 333, 331,
227, 331, 332, 333, 330,
229, 332, 332, 333, 331,
231, 332, 332, 333, 331,
233, 332, 332, 333, 330,
236, 332, 332, 332, 330,
238, 331, 332, 334, 331,
240, 332, 332, 334, 330,
242, 331, 332, 333, 331,
245, 332, 332, 333, 331,
247, 331, 332, 333, 331,
249, 331, 332, 332, 330,
251, 331, 332, 333, 329,
254, 332, 332, 333, 331,
257, 331, 332, 333, 331,
259, 332, 332, 332, 330,
261, 333, 332, 333, 331,
264, 331, 332, 332, 330,
266, 331, 332, 332, 331,
268, 332, 332, 332, 330,
270, 331, 331, 332, 330,
273, 331, 332, 332, 330,
275, 331, 332, 332, 330,
277, 331, 331, 332, 330,
279, 332, 332, 332, 330,
282, 331, 332, 332, 330,
284, 331, 332, 331, 330,
286, 331, 332, 330, 330,
288, 331, 332, 331, 330,
291, 331, 332, 331, 330,
293, 332, 331, 331, 330,
295, 332, 332, 331, 331,
297, 330, 332, 331, 331,
300, 332, 332, 331, 330,
303, 331, 332, 331, 330,
305, 331, 331, 330, 330,
307, 331, 332, 331, 330,
309, 331, 331, 330, 329,
312, 331, 331, 331, 330,
314, 331, 332, 330, 330,
316, 331, 331, 330, 331,
318, 333, 331, 330, 331,
321, 331, 331, 330, 331,
323, 331, 331, 329, 330,
325, 331, 331, 329, 330,
327, 330, 331, 330, 330,
330, 331, 331, 329, 331,
332, 331, 331, 330, 330,
334, 330, 332, 330, 330,
336, 331, 331, 329, 330,
339, 330, 331, 328, 330,
342, 330, 331, 329, 330,
344, 331, 331, 329, 330,
346, 329, 330, 329, 330,
349, 330, 330, 329, 329,
351, 330, 331, 331, 330,
353, 330, 331, 329, 330,
355, 330, 330, 328, 330,
357, 330, 330, 329, 330,
360, 330, 330, 329, 329,
362, 330, 330, 329, 331,
364, 331, 330, 329, 330,
366, 330, 330, 329, 333,
369, 330, 330, 329, 330,
371, 330, 330, 329, 331,
373, 330, 330, 329, 330,
375, 330, 331, 329, 330,
378, 330, 330, 328, 330,
380, 330, 330, 330, 330,
382, 329, 330, 329, 330,
385, 330, 330, 329, 330,
388, 329, 331, 329, 330,
390, 330, 331, 330, 331,
392, 330, 330, 330, 329,
394, 330, 330, 329, 331,
397, 331, 330, 329, 330,
399, 330, 330, 329, 330,
401, 330, 331, 329, 330,
403, 329, 330, 329, 331,
406, 330, 330, 329, 330,
408, 330, 330, 330, 330,
410, 329, 330, 329, 330,
412, 328, 330, 329, 330,
415, 329, 331, 329, 331,
417, 328, 330, 329, 331,
419, 328, 330, 329, 330,
421, 329, 330, 330, 331,
423, 329, 330, 330, 332,
427, 329, 331, 330, 331,
429, 329, 328, 329, 330,
431, 329, 330, 329, 331,
433, 329, 330, 330, 330,
436, 329, 330, 330, 331,
438, 329, 330, 330, 331,
440, 329, 330, 330, 331,
442, 330, 330, 330, 331,
445, 329, 330, 330, 330,
447, 329, 330, 330, 331,
449, 329, 330, 330, 330,
451, 329, 330, 330, 330,
454, 329, 330, 330, 330,
456, 330, 329, 331, 330,
458, 329, 330, 330, 331,
460, 329, 330, 330, 330,
463, 329, 330, 329, 330,
465, 329, 329, 330, 331,
467, 329, 330, 331, 331,
470, 329, 330, 330, 331,
473, 329, 329, 330, 330,
475, 329, 329, 330, 331,
477, 329, 330, 330, 331,
479, 329, 329, 330, 331,
482, 329, 329, 331, 331,
484, 329, 330, 330, 330,
486, 328, 329, 331, 330,
488, 329, 330, 330, 331,
490, 329, 330, 330, 331,
493, 329, 329, 330, 332,
495, 329, 329, 331, 331,
497, 329, 329, 330, 331,
499, 328, 330, 330, 331,
502, 329, 330, 329, 331,
504, 329, 329, 330, 330,
506, 329, 330, 331, 331,
508, 329, 330, 331, 330,
512, 329, 330, 331, 331,
514, 329, 330, 331, 331,
516, 329, 330, 331, 331,
518, 329, 330, 331, 329,
521, 329, 330, 331, 332,
523, 329, 330, 331, 331,
525, 329, 330, 330, 331,
527, 331, 330, 331, 331,
530, 329, 329, 331, 331,
532, 329, 330, 330, 331,
534, 329, 330, 330, 331,
536, 329, 330, 331, 331,
539, 329, 330, 330, 331,
541, 329, 329, 330, 331,
543, 330, 332, 330, 331,
545, 329, 330, 330, 331,
548, 329, 330, 330, 331,
550, 329, 330, 330, 331,
552, 330, 330, 330, 331,
555, 330, 330, 330, 331,
557, 329, 329, 330, 331,
560, 329, 330, 328, 330,
562, 328, 330, 330, 331,
564, 329, 331, 330, 331,
566, 329, 330, 330, 331,
569, 330, 330, 330, 330,
571, 328, 331, 330, 331,
573, 329, 330, 330, 331,
575, 328, 330, 330, 330,
578, 329, 330, 330, 330,
580, 330, 330, 328, 331,
582, 328, 329, 330, 331,
584, 330, 330, 330, 330,
587, 329, 330, 329, 331,
589, 330, 329, 330, 331,
591, 330, 330, 331, 331,
593, 330, 329, 331, 330,
596, 330, 330, 331, 331,
599, 329, 330, 330, 331,
601, 330, 330, 330, 331,
603, 330, 330, 331, 331,
606, 330, 329, 331, 331,
608, 330, 330, 330, 330,
610, 329, 330, 330, 331,
612, 329, 330, 331, 330,
615, 329, 330, 330, 330,
617, 330, 330, 330, 331,
619, 329, 330, 330, 330,
621, 329, 331, 330, 331,
623, 329, 330, 330, 331,
626, 330, 331, 331, 331,
628, 330, 330, 330, 331,
630, 330, 330, 330, 331,
632, 330, 330, 330, 335,
635, 329, 330, 330, 331,
637, 329, 330, 330, 331,
640, 330, 330, 330, 331,
642, 330, 330, 330, 330,
645, 330, 330, 330, 331,
647, 329, 330, 330, 331,
649, 329, 330, 330, 331,
651, 330, 330, 330, 331,
654, 330, 330, 330, 330,
656, 330, 330, 330, 331,
658, 329, 330, 330, 331,
660, 329, 330, 330, 331,
663, 330, 331, 329, 331,
665, 330, 330, 330, 331,
667, 330, 331, 330, 331,
669, 330, 330, 330, 331,
672, 329, 330, 330, 331,
674, 330, 330, 330, 330,
676, 330, 330, 330, 330,
678, 330, 330, 330, 330,
681, 330, 330, 330, 331,
684, 331, 330, 330, 330,
686, 330, 330, 331, 331,
688, 330, 330, 330, 330,
690, 330, 331, 330, 332,
693, 331, 330, 330, 332,
695, 329, 329, 330, 331,
697, 330, 330, 329, 331,
699, 330, 330, 329, 329,
702, 330, 330, 329, 331,
704, 330, 330, 330, 331,
706, 331, 330, 330, 330,
708, 330, 330, 330, 331,
711, 330, 330, 329, 331,
713, 331, 330, 330, 331,
715, 331, 330, 329, 331,
717, 331, 330, 329, 331,
720, 330, 330, 330, 331,
722, 330, 330, 330, 331,
724, 330, 330, 329, 331,
727, 330, 331, 329, 331,
730, 331, 330, 329, 331,
732, 331, 330, 330, 331,
734, 330, 330, 329, 331,
736, 330, 330, 329, 331,
739, 330, 330, 329, 331,
741, 330, 329, 329, 332,
743, 331, 330, 329, 332,
745, 330, 330, 329, 331,
748, 329, 330, 329, 331,
750, 330, 330, 328, 331,
752, 330, 330, 330, 332,
754, 331, 330, 329, 331,
756, 329, 330, 330, 332,
759, 330, 330, 329, 331,
761, 330, 330, 330, 331,
763, 330, 330, 329, 332,
765, 330, 330, 329, 330,
769, 331, 330, 329, 331,
771, 330, 329, 329, 331,
773, 330, 330, 329, 331,
775, 330, 330, 329, 331,
778, 330, 330, 329, 331,
780, 330, 330, 329, 332,
782, 330, 329, 330, 331,
784, 330, 330, 329, 332,
787, 330, 329, 329, 332,
789, 330, 330, 329, 330,
791, 330, 330, 329, 332,
793, 333, 329, 329, 330,
796, 330, 329, 329, 331,
798, 330, 329, 328, 331,
800, 330, 329, 329, 332,
802, 330, 330, 329, 331,
805, 330, 329, 330, 332,
807, 329, 329, 329, 332,
809, 330, 332, 329, 331,
812, 330, 329, 328, 331,
814, 331, 329, 329, 331,
817, 331, 329, 329, 331,
819, 330, 330, 329, 332,
821, 330, 329, 329, 331,
823, 330, 329, 329, 331,
826, 330, 329, 332, 331,
828, 330, 329, 329, 331,
830, 331, 329, 330, 331,
832, 330, 328, 329, 332,
835, 330, 329, 329, 332,
837, 330, 329, 330, 330,
839, 330, 329, 329, 331,
841, 331, 328, 329, 330,
844, 330, 328, 329, 331,
846, 330, 329, 330, 332,
848, 330, 329, 329, 331,
850, 330, 329, 329, 331,
854, 330, 328, 329, 331,
856, 330, 329, 329, 332,
858, 330, 328, 330, 330,
860, 330, 328, 329, 331,
863, 330, 329, 329, 331,
865, 331, 328, 330, 332,
867, 331, 330, 329, 331,
869, 331, 329, 330, 331,
872, 331, 329, 329, 331,
874, 330, 329, 329, 331,
876, 330, 329, 329, 331,
878, 330, 329, 329, 331,
880, 331, 329, 329, 331,
883, 330, 329, 330, 330,
885, 330, 329, 330, 330,
887, 330, 330, 329, 330,
889, 331, 329, 329, 330,
892, 330, 329, 329, 331,
894, 330, 329, 329, 331,
897, 331, 329, 329, 330,
899, 330, 330, 329, 332,
902, 330, 329, 329, 331,
904, 331, 330, 331, 331,
906, 331, 330, 329, 330,
908, 331, 330, 329, 331,
911, 330, 330, 329, 331,
913, 330, 330, 329, 331,
915, 331, 330, 329, 331,
917, 331, 329, 329, 330,
920, 331, 330, 329, 332,
922, 330, 330, 329, 331,
924, 330, 330, 329, 331,
926, 330, 331, 328, 331,
929, 331, 331, 328, 331,
931, 329, 330, 329, 331,
933, 331, 330, 329, 331,
935, 330, 330, 329, 331,
939, 330, 330, 329, 331,
941, 331, 330, 329, 331,
943, 331, 329, 329, 332,
945, 329, 331, 329, 332,
947, 330, 330, 329, 331,
950, 331, 330, 329, 331,
952, 331, 331, 329, 331,
954, 331, 330, 329, 331,
956, 330, 330, 329, 331,
959, 330, 330, 329, 331,
961, 330, 329, 330, 331,
963, 330, 330, 329, 331,
965, 330, 331, 329, 331,
968, 331, 330, 329, 331,
970, 331, 330, 329, 331,
972, 330, 331, 329, 331,
974, 330, 331, 329, 331,
977, 331, 330, 329, 331,
979, 331, 330, 329, 331,
982, 331, 331, 329, 330,
984, 330, 331, 330, 331,
987, 331, 331, 330, 331,
989, 331, 331, 329, 331,
991, 331, 331, 330, 330,
993, 331, 330, 330, 330,
996, 330, 331, 330, 331,
998, 330, 331, 330, 331,
1000, 329, 331, 330, 331,
1002, 329, 331, 330, 331,
1005, 330, 331, 330, 331,
1007, 330, 330, 330, 331,
1009, 331, 331, 330, 330,
1012, 330, 332, 330, 330,
1014, 330, 334, 331, 332,
1016, 330, 330, 329, 331,
1019, 330, 330, 330, 331,
1021, 330, 330, 330, 330,
1024, 330, 331, 329, 331,
1027, 331, 331, 330, 331,
1029, 330, 331, 329, 330,
1031, 330, 331, 330, 330,
1034, 330, 331, 330, 330,
1036, 331, 331, 330, 331,
1038, 330, 331, 330, 331,
1041, 330, 331, 330, 330,
1043, 330, 332, 330, 330,
1045, 330, 332, 330, 330,
1048, 331, 330, 330, 331,
1050, 331, 331, 330, 331,
1052, 330, 331, 331, 330,
1054, 330, 331, 331, 331,
1057, 331, 331, 330, 331,
1059, 331, 332, 331, 331,
1061, 330, 332, 331, 330,
1064, 330, 331, 331, 330,
1067, 330, 331, 330, 330,
1069, 331, 331, 330, 332,
1072, 330, 331, 331, 330,
1074, 330, 331, 331, 330,
1076, 332, 331, 331, 330,
1079, 330, 332, 331, 330,
1081, 330, 330, 331, 331,
1083, 330, 330, 331, 329,
1086, 330, 330, 331, 330,
1088, 330, 331, 331, 331,
1090, 330, 331, 331, 331,
1093, 330, 330, 331, 331,
1095, 330, 331, 331, 330,
1097, 329, 331, 332, 329,
1100, 330, 330, 331, 330,
1102, 330, 331, 331, 332,
1104, 331, 331, 332, 330,
1107, 330, 330, 331, 330,
1110, 330, 331, 332, 330,
1112, 330, 331, 331, 329,
1115, 330, 330, 331, 330,
1117, 330, 329, 331, 330,
1119, 330, 330, 332, 329,
1122, 330, 330, 331, 329,
1124, 330, 331, 331, 330,
1126, 331, 330, 331, 330,
1129, 331, 330, 331, 330,
1131, 330, 330, 332, 330,
1133, 329, 330, 332, 329,
1136, 330, 330, 331, 330,
1138, 330, 330, 332, 330,
1140, 330, 330, 332, 330,
1142, 331, 330, 332, 330,
1145, 330, 331, 332, 330,
1147, 331, 330, 333, 330,
1149, 329, 330, 332, 330,
1153, 330, 330, 332, 330,
1155, 330, 330, 332, 330,
1157, 330, 330, 331, 333,
1160, 331, 330, 332, 331,
1162, 330, 330, 332, 330,
1164, 330, 330, 332, 330,
1167, 330, 330, 332, 331,
1169, 331, 330, 332, 330,
1171, 330, 330, 333, 329,
1174, 330, 330, 337, 330,
1176, 330, 330, 332, 330,
1178, 330, 330, 332, 331,
1181, 331, 330, 332, 330,
1183, 330, 329, 332, 330,
1185, 331, 330, 332, 330,
1188, 330, 330, 332, 330,
1190, 331, 333, 332, 331,
1192, 330, 329, 332, 330,
1196, 330, 329, 333, 330,
1198, 330, 330, 333, 330,
1200, 331, 329, 332, 331,
1203, 330, 330, 332, 330,
1205, 330, 329, 332, 330,
1207, 333, 330, 332, 331,
1210, 330, 330, 332, 330,
1212, 330, 330, 332, 331,
1214, 329, 330, 332, 330,
1217, 330, 330, 332, 330,
1219, 330, 330, 332, 331,
1221, 330, 331, 332, 330,
1224, 330, 329, 332, 331,
1226, 330, 330, 332, 331,
1228, 330, 330, 332, 330,
1230, 330, 330, 332, 331,
1233, 330, 330, 332, 331,
1235, 330, 330, 332, 331,
1238, 329, 330, 332, 330,
1241, 330, 330, 332, 330,
1243, 329, 330, 332, 330,
1245, 330, 330, 332, 332,
1248, 330, 330, 332, 330,
1250, 330, 330, 332, 330,
1252, 331, 330, 332, 330,
1255, 329, 331, 332, 329,
1257, 330, 330, 332, 331,
1259, 330, 330, 332, 330,
1262, 330, 330, 332, 330,
1264, 330, 330, 331, 329,
1266, 330, 330, 332, 331,
1269, 330, 330, 332, 330,
1271, 330, 330, 333, 330,
1273, 329, 331, 332, 330,
1276, 329, 331, 331, 330,
1278, 330, 330, 331, 331,
1281, 330, 330, 331, 330,
1284, 329, 330, 331, 330,
1286, 329, 331, 331, 330,
1288, 329, 331, 332, 329,
1291, 330, 330, 330, 330,
1293, 329, 329, 330, 330,
1295, 329, 330, 332, 330,
1298, 329, 330, 331, 330,
1300, 330, 330, 330, 331,
1302, 330, 330, 331, 330,
1305, 330, 329, 331, 332,
1307, 329, 329, 332, 329,
1309, 330, 330, 331, 331,
1312, 329, 329, 330, 330,
1314, 329, 329, 331, 330,
1316, 329, 330, 332, 330,
1318, 329, 329, 331, 330,
1321, 329, 330, 331, 330,
1324, 329, 329, 331, 330,
1326, 330, 329, 331, 330,
1329, 329, 331, 331, 330,
1331, 330, 330, 331, 330,
1333, 329, 330, 330, 334,
1336, 330, 330, 331, 330,
1338, 329, 330, 331, 330,
1340, 329, 331, 331, 330,
1343, 329, 331, 330, 331,
1345, 330, 330, 330, 331,
1347, 328, 331, 330, 330,
1350, 329, 330, 335, 331,
1352, 329, 330, 330, 330,
1354, 329, 330, 330, 332,
1357, 329, 330, 330, 330,
1359, 329, 329, 329, 330,
1361, 329, 330, 330, 329,
1364, 329, 331, 330, 330,
1367, 329, 333, 329, 331,
1369, 329, 330, 330, 331,
1372, 329, 329, 331, 330,
1374, 329, 331, 330, 330,
1376, 329, 330, 330, 331,
1379, 329, 330, 330, 331,
1381, 329, 330, 330, 330,
1383, 327, 330, 331, 330,
1386, 328, 330, 330, 330,
1388, 329, 330, 330, 332,
1390, 329, 330, 330, 330,
1393, 328, 330, 330, 330,
1395, 329, 330, 329, 331,
1397, 328, 330, 330, 329,
1400, 328, 329, 330, 331,
1402, 329, 329, 330, 331,
1404, 329, 330, 330, 331,
1406, 329, 330, 330, 331,
1410, 330, 330, 330, 331,
1412, 328, 330, 330, 331,
1414, 328, 330, 330, 330,
1417, 329, 329, 331, 330,
1419, 329, 329, 330, 331,
1421, 329, 329, 330, 332,
1424, 329, 329, 331, 330,
1426, 329, 330, 330, 331,
1428, 329, 330, 330, 330,
1431, 328, 330, 330, 329,
1433, 329, 329, 330, 331,
1435, 329, 329, 331, 331,
1438, 329, 330, 330, 330,
1440, 329, 331, 330, 330,
1442, 329, 329, 329, 331,
1445, 329, 329, 330, 331,
1447, 329, 329, 331, 331,
1449, 329, 330, 330, 330,
1453, 330, 330, 330, 331,
1455, 329, 329, 330, 331,
1457, 329, 330, 330, 331,
1460, 329, 329, 331, 330,
1462, 329, 330, 330, 330,
1464, 329, 329, 330, 331,
1467, 329, 329, 330, 331,
1469, 329, 328, 331, 331,
1471, 329, 330, 331, 330,
1474, 328, 330, 330, 331,
1476, 330, 329, 329, 331,
1478, 330, 329, 330, 331,
1481, 329, 329, 330, 333,
1483, 329, 329, 330, 330,
1485, 330, 329, 330, 332,
1488, 329, 329, 330, 331,
1490, 329, 329, 330, 331,
1492, 329, 330, 330, 331,
1495, 329, 329, 330, 331,
1498, 329, 329, 330, 332,
1500, 329, 328, 330, 331,
1502, 329, 329, 330, 331,
1505, 329, 330, 330, 330,
1507, 329, 329, 330, 330,
1509, 329, 329, 330, 332,
1512, 329, 329, 329, 332,
1514, 329, 329, 330, 331,
1516, 329, 329, 330, 331,
1519, 329, 329, 330, 332,
1521, 330, 328, 329, 331,
1523, 328, 329, 330, 331,
1526, 329, 328, 331, 331,
1528, 329, 329, 330, 331,
1530, 329, 328, 329, 332,
1533, 329, 329, 330, 331,
1536, 329, 328, 329, 331,
1538, 330, 328, 329, 329,
1541, 329, 329, 330, 330,
1543, 330, 332, 329, 331,
1545, 329, 328, 330, 331,
1548, 329, 328, 330, 331,
1550, 330, 330, 330, 330,
1552, 329, 329, 330, 331,
1555, 330, 329, 330, 331,
1557, 329, 328, 330, 331,
1559, 331, 330, 330, 330,
1562, 329, 329, 330, 331,
1564, 330, 329, 330, 332,
1566, 330, 328, 330, 331,
1569, 329, 329, 330, 330,
1571, 329, 328, 330, 330,
1573, 329, 329, 330, 329,
1575, 329, 329, 330, 331,
1579, 329, 329, 331, 330,
1581, 329, 329, 331, 330,
1583, 330, 329, 330, 329,
1586, 330, 329, 330, 331,
1588, 329, 329, 330, 331,
1590, 329, 329, 330, 331,
1593, 329, 328, 330, 330,
1595, 330, 329, 330, 331,
1597, 330, 329, 330, 331,
1600, 330, 329, 331, 331,
1602, 329, 330, 331, 330,
1604, 329, 330, 331, 330,
1607, 329, 330, 330, 331,
1609, 330, 330, 331, 330,
1611, 329, 329, 331, 334,
1614, 330, 330, 331, 330,
1616, 329, 330, 330, 330,
1618, 329, 330, 330, 331,
1622, 330, 330, 331, 331,
1624, 330, 330, 330, 331,
1626, 330, 330, 331, 330,
1629, 330, 330, 333, 331,
1631, 330, 330, 330, 331,
1633, 330, 330, 330, 332,
1636, 329, 330, 332, 330,
1638, 330, 330, 331, 330,
1640, 330, 331, 331, 330,
1643, 330, 330, 330, 331,
1645, 330, 330, 331, 331,
1647, 329, 331, 331, 330,
1650, 330, 331, 331, 331,
1652, 329, 330, 330, 331,
1654, 330, 330, 331, 331,
1657, 330, 330, 331, 331,
1659, 329, 331, 330, 330,
1661, 330, 331, 330, 331,
1664, 329, 330, 330, 331,
1667, 329, 330, 330, 331,
1669, 329, 331, 331, 330,
1671, 329, 331, 330, 331,
1674, 330, 331, 330, 330,
1676, 330, 330, 331, 331,
1678, 330, 330, 330, 330,
1681, 330, 331, 330, 330,
1683, 330, 331, 331, 330,
1685, 329, 330, 330, 331,
1688, 329, 330, 330, 331,
1690, 329, 332, 330, 332,
1692, 329, 331, 330, 330,
1695, 329, 331, 330, 331,
1697, 329, 330, 330, 331,
1699, 329, 331, 330, 331,
1702, 329, 330, 331, 330,
1704, 329, 331, 331, 331,
1707, 329, 330, 330, 332,
1710, 329, 330, 330, 331,
1712, 329, 330, 331, 331,
1714, 330, 331, 330, 329,
1717, 329, 331, 331, 331,
1719, 330, 331, 331, 331,
1721, 329, 330, 330, 331,
1724, 329, 331, 331, 330,
1726, 329, 332, 331, 330,
1728, 330, 331, 330, 331,
1731, 329, 331, 329, 331,
1733, 329, 330, 331, 331,
1735, 331, 332, 331, 331,
1738, 330, 331, 331, 332,
1740, 329, 331, 330, 332,
1742, 329, 330, 330, 331,
1745, 329, 331, 331, 330,
1747, 329, 330, 330, 330,
1750, 328, 330, 330, 331,
1752, 329, 330, 331, 331,
1755, 329, 330, 331, 331,
1757, 329, 330, 331, 330,
1759, 329, 331, 331, 331,
1762, 330, 330, 330, 331,
1764, 329, 330, 331, 331,
1766, 330, 331, 331, 331,
1769, 329, 331, 331, 331,
1771, 329, 331, 330, 332,
1773, 329, 330, 330, 332,
1776, 329, 330, 331, 331,
1778, 329, 331, 331, 330,
1780, 329, 331, 330, 330,
1783, 329, 331, 331, 332,
1785, 329, 330, 331, 331,
1787, 329, 330, 331, 335,
1790, 329, 331, 331, 331,
1793, 329, 331, 331, 330,
1795, 329, 330, 330, 332,
1798, 330, 330, 331, 331,
1800, 329, 329, 330, 331,
1802, 329, 331, 331, 331,
1805, 330, 331, 334, 331,
1807, 329, 330, 330, 331,
1809, 329, 330, 331, 331,
1812, 329, 330, 331, 330,
1814, 329, 331, 331, 330,
1816, 329, 331, 331, 332,
1819, 329, 331, 330, 331,
1821, 329, 335, 331, 331,
1823, 329, 331, 331, 330,
1826, 329, 331, 331, 331,
1828, 329, 330, 331, 330,
1830, 329, 330, 330, 331,
1833, 329, 331, 331, 331,
1836, 328, 332, 331, 330,
1838, 331, 330, 330, 331,
1840, 329, 330, 330, 331,
1843, 329, 330, 330, 330,
1845, 329, 331, 331, 330,
1847, 329, 330, 330, 331,
1850, 329, 331, 331, 331,
1852, 329, 330, 331, 331,
1854, 329, 331, 331, 330,
1857, 328, 330, 330, 330,
1859, 328, 330, 330, 329,
1861, 329, 330, 331, 331,
1864, 329, 330, 331, 331,
1866, 329, 330, 331, 330,
1868, 329, 330, 331, 330,
1871, 329, 330, 331, 331,
1873, 330, 330, 330, 331,
1875, 329, 331, 331, 330,
1879, 329, 329, 332, 330,
1881, 330, 331, 331, 331,
1883, 329, 330, 331, 329,
1886, 329, 330, 330, 330,
1888, 329, 330, 332, 330,
1890, 329, 330, 331, 329,
1893, 329, 331, 331, 330,
1895, 329, 332, 331, 330,
1897, 329, 330, 330, 329,
1900, 329, 331, 331, 330,
1902, 329, 331, 331, 329,
1904, 330, 330, 331, 331,
1907, 329, 330, 331, 330,
1909, 329, 329, 331, 330,
1911, 329, 330, 331, 329,
1914, 329, 330, 330, 330,
1916, 329, 330, 331, 330,
1918, 329, 330, 330, 330,
1922, 329, 330, 332, 330,
1924, 329, 329, 331, 329,
1926, 329, 330, 330, 331,
1928, 329, 330, 331, 330,
1931, 329, 330, 331, 330,
1933, 329, 330, 331, 330,
1935, 330, 330, 331, 331,
1938, 330, 330, 330, 331,
1940, 328, 330, 331, 330,
1942, 330, 330, 331, 330,
1945, 329, 330, 331, 330,
1947, 330, 330, 330, 330,
1949, 329, 330, 330, 331,
1952, 329, 330, 331, 331,
1954, 329, 330, 331, 331,
1956, 330, 330, 331, 330,
1959, 329, 330, 331, 332,
1961, 330, 329, 330, 331,
1964, 329, 330, 331, 335,
1967, 329, 331, 331, 330,
1969, 329, 330, 331, 330,
1971, 329, 330, 331, 331,
1974, 329, 331, 331, 331,
1976, 329, 330, 331, 331,
1978, 329, 331, 331, 330,
1981, 330, 330, 334, 331,
1983, 329, 330, 331, 331,
1985, 329, 330, 330, 331,
1988, 329, 329, 331, 330,
1990, 328, 331, 331, 331,
1992, 329, 331, 331, 332,
1995, 329, 330, 330, 331,
1997, 329, 335, 330, 331,
1999, 329, 331, 331, 330,
2002, 329, 330, 330, 331,
2004, 329, 330, 331, 331,
2007, 329, 330, 330, 330,
2010, 330, 330, 329, 330,
2012, 329, 331, 330, 330,
2014, 333, 331, 330, 331,
2016, 329, 330, 330, 331,
2019, 329, 330, 330, 331,
2021, 329, 331, 330, 331,
2023, 329, 330, 330, 331,
2026, 329, 330, 330, 331,
2028, 329, 330, 330, 331,
2030, 329, 330, 331, 330,
2033, 329, 330, 330, 330,
2035, 329, 330, 330, 330,
2037, 329, 329, 331, 331,
2040, 329, 329, 330, 331,
2042, 328, 330, 331, 330,
2044, 329, 329, 330, 330,
2048, 329, 330, 330, 331,
2050, 329, 329, 330, 331,
2052, 330, 330, 331, 330,
2055, 329, 330, 331, 330,
2057, 329, 331, 330, 331,
2059, 329, 330, 330, 330,
2062, 329, 330, 330, 330,
2064, 330, 330, 331, 330,
2066, 329, 330, 330, 330,
2069, 329, 331, 330, 331,
2071, 329, 331, 330, 331,
2073, 329, 330, 329, 331,
2076, 329, 330, 331, 330,
2078, 329, 331, 331, 330,
2080, 329, 330, 330, 331,
2083, 329, 330, 330, 331,
2085, 329, 330, 330, 330,
2087, 330, 330, 331, 330,
2091, 329, 330, 330, 331,
2093, 330, 330, 330, 331,
2095, 329, 330, 331, 331,
2098, 328, 330, 331, 330,
2100, 329, 331, 331, 330,
2102, 329, 330, 330, 332,
2104, 329, 330, 331, 330,
2107, 329, 330, 331, 331,
2109, 329, 330, 331, 330,
2111, 330, 330, 331, 331,
2114, 329, 330, 330, 331,
2116, 329, 330, 331, 330,
2118, 330, 330, 331, 330,
2121, 330, 331, 331, 330,
2123, 330, 330, 331, 331,
2125, 329, 330, 331, 331,
2128, 329, 330, 331, 330,
2130, 329, 330, 331, 330,
2132, 329, 330, 332, 331,
2136, 329, 330, 331, 332,
2138, 329, 329, 331, 331,
2140, 329, 330, 332, 333,
2143, 329, 331, 332, 330,
2145, 329, 330, 332, 330,
2147, 329, 330, 332, 331,
2150, 330, 330, 330, 330,
2152, 329, 330, 332, 331,
2154, 329, 330, 332, 330,
2157, 330, 330, 334, 330,
2159, 329, 330, 332, 330,
2161, 330, 330, 332, 330,
2164, 329, 329, 332, 329,
2166, 330, 330, 332, 330,
2168, 330, 330, 331, 330,
2171, 330, 330, 331, 330,
2173, 329, 334, 331, 330,
2176, 329, 330, 332, 330,
2179, 329, 330, 331, 330,
2181, 330, 330, 331, 330,
2183, 330, 329, 332, 330,
2185, 330, 330, 331, 331,
2188, 330, 331, 332, 329,
2190, 334, 329, 331, 330,
2192, 330, 330, 332, 330,
2195, 329, 329, 332, 330,
2197, 329, 330, 332, 330,
2199, 330, 329, 331, 331,
2202, 330, 328, 331, 330,
2204, 330, 330, 332, 330,
2206, 329, 329, 332, 330,
2209, 330, 330, 332, 329,
2211, 329, 330, 332, 331,
2213, 329, 329, 332, 329,
2216, 330, 330, 332, 330,
2219, 328, 330, 332, 330,
2221, 330, 330, 332, 329,
2224, 330, 330, 332, 331,
2226, 330, 329, 332, 330,
2228, 330, 330, 332, 330,
2231, 330, 330, 332, 329,
2233, 330, 330, 331, 331,
2235, 330, 329, 332, 330,
2238, 330, 329, 332, 330,
2240, 330, 329, 333, 330,
2242, 330, 329, 331, 329,
2245, 330, 329, 331, 330,
2247, 330, 330, 333, 330,
2249, 330, 329, 331, 330,
2252, 330, 330, 332, 330,
2254, 330, 330, 331, 329,
2256, 330, 329, 331, 330,
2259, 330, 329, 331, 330,
2262, 330, 328, 332, 330,
2264, 330, 331, 332, 330,
2267, 330, 329, 331, 330,
2269, 330, 329, 331, 330,
2271, 330, 329, 332, 330,
2273, 329, 329, 332, 329,
2276, 330, 329, 331, 331,
2278, 331, 329, 331, 331,
2280, 330, 328, 331, 330,
2283, 330, 328, 332, 330,
2285, 330, 329, 331, 330,
2287, 331, 329, 332, 332,
2290, 330, 329, 332, 330,
2292, 330, 329, 332, 330,
2294, 331, 328, 332, 330,
2297, 330, 330, 331, 330,
2299, 331, 328, 331, 331,
2301, 330, 328, 331, 330,
2305, 330, 328, 331, 330,
2307, 330, 329, 332, 330,
2309, 330, 329, 331, 330,
2312, 330, 329, 332, 329,
2314, 330, 329, 332, 330,
2316, 330, 329, 332, 330,
2319, 330, 329, 332, 329,
2321, 329, 329, 331, 329,
2323, 330, 329, 332, 330,
2326, 330, 329, 331, 330,
2328, 330, 330, 332, 330,
2330, 330, 330, 332, 330,
2333, 330, 329, 333, 330,
2335, 330, 329, 331, 330,
2337, 330, 329, 331, 330,
2340, 330, 329, 332, 330,
2342, 330, 330, 331, 331,
2344, 330, 329, 331, 329,
2348, 330, 329, 331, 330,
2350, 330, 331, 331, 330,
2352, 329, 330, 332, 329,
2355, 329, 330, 331, 331,
2357, 330, 329, 332, 330,
2359, 330, 329, 332, 330,
2361, 330, 330, 331, 331,
2364, 330, 330, 331, 330,
2366, 335, 329, 331, 330,
2368, 330, 330, 331, 330,
2371, 330, 329, 331, 330,
2373, 330, 330, 331, 330,
2375, 330, 330, 331, 330,
2378, 329, 329, 331, 330,
2380, 330, 330, 331, 330,
2382, 330, 330, 330, 330,
2385, 330, 331, 331, 330,
2387, 330, 330, 330, 332,
2390, 330, 329, 331, 331,
2393, 330, 330, 330, 330,
2395, 328, 330, 331, 330,
2397, 330, 330, 331, 330,
2400, 329, 330, 331, 331,
2402, 330, 330, 331, 330,
2404, 330, 330, 331, 330,
2407, 329, 331, 331, 330,
2409, 329, 330, 331, 331,
2411, 329, 330, 331, 331,
2414, 330, 330, 331, 331,
2416, 329, 330, 332, 330,
2418, 329, 331, 331, 330,
2421, 330, 331, 331, 331,
2423, 330, 331, 330, 331,
2425, 330, 330, 330, 331,
2428, 330, 331, 331, 330,
2430, 329, 331, 331, 329,
2433, 330, 330, 330, 331,
2436, 330, 330, 331, 330,
2438, 330, 331, 331, 330,
2440, 330, 331, 331, 330,
2443, 330, 330, 331, 331,
2445, 330, 330, 330, 331,
2447, 330, 331, 331, 331,
2449, 329, 331, 331, 330,
2452, 330, 333, 330, 331,
2454, 330, 331, 330, 331,
2456, 330, 330, 330, 330,
2459, 330, 330, 331, 330,
2461, 330, 330, 331, 330,
2463, 330, 330, 330, 329,
2466, 330, 330, 331, 331,
2468, 330, 330, 331, 330,
2470, 330, 330, 331, 330,
2473, 330, 331, 331, 330,
2476, 330, 330, 330, 331,
2478, 330, 330, 331, 331,
2481, 330, 330, 331, 330,
2483, 330, 331, 331, 330,
2485, 330, 330, 331, 330,
2488, 330, 330, 331, 331,
2490, 330, 330, 330, 331,
2492, 329, 330, 332, 331,
2495, 330, 331, 331, 330,
2497, 330, 331, 331, 330,
2499, 330, 330, 331, 330,
2502, 330, 330, 330, 330,
2504, 330, 330, 332, 330,
2506, 330, 331, 331, 330,
2509, 330, 331, 332, 330,
2511, 330, 330, 331, 331,
2513, 330, 330, 332, 331,
2516, 330, 331, 332, 331,
2519, 330, 331, 330, 331,
2521, 330, 331, 331, 330,
2524, 329, 331, 331, 331,
2526, 329, 331, 331, 332,
2528, 330, 331, 331, 330,
2531, 329, 331, 331, 331,
2533, 330, 330, 331, 331,
2535, 330, 330, 332, 331,
2537, 330, 331, 331, 331,
2540, 330, 331, 331, 330,
2542, 330, 330, 331, 331,
2544, 329, 330, 331, 331,
2547, 329, 330, 331, 331,
2549, 330, 331, 331, 331,
2551, 330, 330, 331, 332,
2554, 330, 329, 331, 331,
2556, 330, 331, 331, 331,
2558, 329, 331, 331, 331,
2562, 329, 331, 331, 331,
2564, 329, 330, 331, 333,
2566, 329, 330, 331, 331,
2569, 330, 330, 330, 331,
2571, 328, 330, 331, 331,
2573, 330, 330, 331, 330,
2576, 329, 331, 330, 332,
2578, 330, 330, 330, 331,
2580, 330, 331, 331, 331,
2583, 329, 330, 331, 330,
2585, 330, 330, 330, 332,
2587, 330, 330, 330, 332,
2590, 330, 330, 332, 331,
2592, 329, 330, 332, 331,
2594, 329, 331, 331, 335,
2597, 329, 330, 331, 331,
2599, 329, 330, 332, 332,
2601, 329, 330, 331, 331,
2605, 329, 331, 331, 331,
2607, 329, 331, 330, 330,
2609, 330, 330, 330, 331,
2612, 329, 330, 334, 331,
2614, 329, 331, 330, 330,
2616, 330, 329, 331, 331,
2619, 330, 330, 330, 331,
2621, 329, 330, 330, 331,
2623, 329, 330, 330, 331,
2625, 330, 330, 331, 330,
2628, 330, 333, 330, 331,
2630, 330, 330, 330, 331,
2632, 329, 330, 330, 330,
2635, 329, 330, 331, 331,
2637, 329, 330, 330, 330,
2639, 330, 330, 330, 332,
2642, 330, 330, 330, 331,
2644, 333, 330, 330, 330,
2647, 330, 330, 330, 330,
2650, 330, 330, 329, 330,
2652, 330, 330, 329, 331,
2654, 330, 330, 330, 330,
2657, 330, 329, 330, 330,
2659, 329, 330, 330, 330,
2661, 330, 330, 330, 331,
2664, 330, 330, 330, 330,
2666, 329, 329, 330, 331,
2668, 328, 330, 330, 331,
2671, 329, 330, 330, 330,
2673, 330, 330, 330, 332,
2675, 330, 329, 331, 331,
2678, 330, 330, 329, 330,
2680, 330, 330, 331, 330,
2682, 330, 329, 331, 330,
2685, 330, 330, 331, 331,
2688, 330, 329, 330, 331,
2690, 330, 328, 331, 331,
2693, 330, 330, 331, 331,
2695, 330, 329, 330, 332,
2697, 329, 329, 330, 331,
2700, 329, 330, 331, 330,
2702, 330, 330, 330, 332,
2704, 329, 330, 331, 331,
2707, 330, 329, 330, 331,
2709, 330, 329, 331, 331,
2711, 330, 330, 331, 330,
2713, 330, 329, 330, 331,
2716, 329, 330, 330, 329,
2718, 330, 329, 329, 331,
2720, 329, 329, 331, 331,
2723, 329, 329, 330, 330,
2725, 329, 329, 330, 330,
2727, 330, 329, 330, 330,
2731, 330, 329, 330, 331,
2733, 329, 329, 330, 331,
2735, 329, 329, 331, 330,
2738, 329, 330, 330, 331,
2740, 329, 329, 330, 332,
2742, 329, 329, 330, 331,
2745, 329, 329, 331, 330,
2747, 328, 329, 330, 331,
2749, 329, 329, 330, 329,
2752, 329, 329, 330, 331,
2754, 329, 329, 330, 330,
2756, 330, 330, 330, 330,
2759, 329, 330, 330, 331,
2761, 330, 329, 330, 331,
2763, 330, 329, 330, 330,
2766, 329, 329, 331, 330,
2768, 329, 329, 331, 330,
2770, 330, 330, 330, 331,
2774, 329, 330, 330, 330,
2776, 329, 330, 330, 330,
2778, 329, 330, 331, 330,
2781, 329, 331, 330, 330,
2783, 329, 330, 330, 330,
2785, 329, 330, 330, 330,
2788, 329, 329, 330, 330,
2790, 329, 330, 330, 330,
2792, 329, 330, 330, 330,
2794, 329, 329, 329, 330,
2797, 329, 330, 330, 330,
2799, 329, 330, 330, 328,
2801, 329, 329, 330, 330,
2804, 330, 334, 330, 331,
2806, 329, 329, 330, 331,
2808, 329, 330, 331, 330,
2811, 329, 329, 331, 330,
2813, 329, 329, 331, 329,
2816, 329, 329, 330, 330,
2819, 330, 329, 331, 330,
2821, 333, 329, 331, 330,
2823, 330, 329, 331, 330,
2826, 329, 330, 331, 329,
2828, 330, 329, 330, 331,
2830, 330, 329, 331, 330,
2833, 330, 328, 330, 331,
2835, 330, 330, 331, 330,
2837, 330, 330, 330, 331,
2840, 330, 330, 330, 331,
2842, 330, 330, 331, 330,
2844, 328, 331, 330, 331,
2847, 329, 331, 330, 330,
2849, 328, 331, 330, 332,
2851, 329, 330, 330, 331,
2854, 330, 330, 328, 330,
2856, 329, 330, 330, 330,
2859, 329, 331, 330, 329,
2862, 330, 330, 330, 331,
2864, 330, 330, 330, 331,
2866, 330, 330, 330, 330,
2869, 330, 331, 330, 331,
2871, 330, 331, 329, 331,
2873, 330, 330, 330, 329,
2876, 329, 331, 330, 330,
2878, 330, 331, 330, 330,
2880, 330, 330, 330, 331,
2882, 330, 330, 330, 331,
2885, 330, 330, 330, 330,
2887, 330, 330, 330, 330,
2889, 330, 330, 330, 331,
2892, 329, 331, 330, 330,
2894, 330, 330, 331, 331,
2896, 330, 330, 330, 330,
2899, 330, 331, 330, 330,
2902, 330, 330, 330, 330,
2904, 330, 330, 329, 331,
2907, 330, 330, 330, 330,
2909, 330, 330, 330, 330,
2911, 329, 330, 330, 330,
2914, 330, 330, 330, 331,
2916, 329, 330, 330, 331,
2918, 330, 330, 331, 330,
2921, 330, 329, 331, 330,
2923, 329, 330, 331, 330,
2925, 330, 330, 330, 330,
2928, 330, 330, 330, 330,
2930, 330, 330, 330, 330,
2932, 331, 330, 331, 330,
2935, 330, 331, 331, 331,
2937, 331, 330, 331, 331,
2939, 330, 329, 331, 330,
2942, 330, 329, 331, 330,
2945, 330, 329, 331, 330,
2947, 331, 330, 330, 330,
2950, 330, 330, 330, 330,
2952, 330, 330, 330, 331,
2954, 330, 329, 332, 330,
2957, 330, 330, 330, 329,
2959, 330, 330, 330, 331,
2961, 330, 329, 330, 330,
2964, 330, 329, 331, 330,
2966, 330, 330, 331, 330,
2968, 330, 330, 331, 330,
2970, 330, 329, 330, 330,
2973, 330, 329, 331, 330,
2975, 330, 329, 330, 328,
2977, 330, 329, 331, 331,
2980, 330, 333, 331, 331,
2982, 330, 329, 330, 331,
2984, 330, 330, 331, 330,
2988, 330, 329, 331, 330,
2990, 330, 329, 330, 330,
2992, 330, 329, 329, 330,
2995, 330, 329, 331, 330,
2997, 333, 330, 331, 329,
2999, 331, 329, 331, 330,
3002, 330, 329, 331, 329,
3004, 330, 329, 330, 331,
3006, 330, 329, 330, 331,
3009, 330, 329, 330, 331,
3011, 330, 330, 330, 330,
3013, 330, 329, 330, 331,
3016, 330, 329, 330, 332,
3018, 330, 329, 331, 330,
3020, 329, 329, 330, 331,
3023, 329, 330, 330, 331,
3025, 330, 329, 330, 332,
3027, 330, 329, 330, 331,
3031, 330, 329, 330, 330,
3033, 330, 329, 330, 330,
3035, 330, 329, 330, 329,
3038, 330, 328, 330, 331,
3040, 330, 328, 330, 331,
3042, 330, 329, 329, 330,
3045, 330, 329, 329, 331,
3047, 330, 329, 329, 331,
3049, 331, 329, 329, 333,
3052, 331, 329, 329, 330,
3054, 330, 329, 330, 331,
3056, 330, 328, 329, 331,
3058, 330, 328, 329, 331,
3061, 330, 328, 329, 330,
3063, 330, 329, 330, 331,
3065, 331, 329, 333, 331,
3068, 330, 329, 329, 331,
3070, 331, 328, 329, 331,
3073, 330, 328, 330, 331,
3076, 330, 329, 329, 330,
3078, 330, 329, 330, 330,
3080, 331, 329, 329, 331,
3083, 331, 328, 330, 330,
3085, 330, 329, 330, 330,
3087, 330, 328, 330, 330,
3090, 331, 329, 330, 331,
3092, 331, 329, 329, 330,
3094, 330, 330, 329, 331,
3097, 330, 329, 331, 330,
3099, 328, 329, 329, 330,
3101, 331, 329, 329, 332,
3104, 330, 329, 329, 331,
3106, 330, 329, 329, 331,
3108, 331, 329, 329, 330,
3111, 330, 330, 329, 331,
3113, 330, 329, 329, 331,
3116, 330, 329, 330, 331,
3119, 330, 328, 330, 330,
3121, 330, 329, 330, 330,
3123, 331, 330, 329, 331,
3126, 331, 329, 329, 330,
3128, 330, 330, 329, 330,
3130, 330, 329, 331, 330,
3133, 331, 330, 329, 330,
3135, 330, 330, 330, 332,
3137, 330, 329, 330, 331,
3140, 330, 330, 330, 331,
3142, 330, 330, 330, 330,
3144, 331, 330, 329, 329,
3146, 330, 329, 329, 330,
3149, 330, 329, 330, 330,
3151, 330, 330, 329, 329,
3153, 331, 330, 329, 331,
3156, 331, 331, 329, 331,
3159, 330, 330, 329, 330,
3161, 329, 331, 330, 330,
3164, 330, 329, 330, 330,
3166, 330, 330, 329, 331,
3168, 330, 330, 328, 330,
3171, 330, 330, 329, 330,
3173, 332, 331, 330, 330,
3175, 330, 330, 329, 330,
3178, 330, 331, 329, 329,
3180, 330, 330, 329, 330,
3182, 330, 330, 329, 330,
3185, 330, 329, 330, 330,
3187, 330, 331, 330, 330,
3189, 330, 330, 329, 331,
3192, 330, 330, 330, 330,
3194, 330, 330, 330, 330,
3196, 330, 331, 330, 330,
3200, 330, 331, 329, 331,
3202, 329, 330, 329, 331,
3204, 329, 330, 329, 330,
3207, 330, 330, 330, 330,
3209, 330, 330, 330, 329,
3211, 329, 330, 330, 330,
3214, 330, 330, 330, 330,
3216, 330, 330, 330, 330,
3218, 331, 330, 330, 330,
3221, 330, 330, 330, 331,
3223, 330, 330, 329, 331,
3225, 330, 330, 330, 333,
3228, 330, 330, 330, 329,
3230, 330, 331, 330, 330,
3232, 330, 330, 330, 331,
3234, 329, 330, 330, 330,
3237, 330, 330, 330, 330,
3239, 329, 330, 330, 330,
3241, 330, 330, 334, 330,
3245, 329, 331, 330, 331,
3247, 329, 330, 330, 330,
3249, 329, 330, 330, 330,
3252, 331, 330, 330, 330,
3254, 330, 330, 330, 330,
3256, 330, 330, 329, 330,
3259, 330, 330, 330, 330,
3261, 329, 330, 330, 330,
3263, 330, 330, 330, 330,
3266, 330, 330, 330, 331,
3268, 330, 330, 329, 331,
3270, 328, 331, 330, 330,
3273, 329, 330, 331, 330,
3275, 326, 331, 329, 330,
3277, 330, 330, 330, 331,
3280, 330, 330, 330, 330,
3282, 330, 330, 329, 330,
3284, 330, 330, 330, 330,
3288, 329, 331, 330, 331,
3290, 330, 330, 330, 331,
3292, 330, 330, 330, 330,
3295, 329, 330, 330, 330,
3297, 329, 331, 330, 330,
3299, 330, 330, 330, 331,
3302, 330, 330, 330, 330,
3304, 329, 330, 330, 330,
3306, 329, 329, 331, 330,
3309, 330, 330, 329, 330,
3311, 329, 330, 329, 330,
3313, 330, 330, 329, 331,
3316, 329, 330, 330, 331,
3318, 329, 330, 330, 330,
3320, 330, 330, 330, 329,
3322, 329, 330, 330, 330,
3325, 330, 330, 329, 330,
3328, 329, 330, 330, 329,
3330, 329, 330, 330, 330,
3333, 330, 331, 329, 331,
3335, 330, 329, 329, 331,
3337, 330, 330, 329, 330,
3340, 329, 330, 330, 330,
3342, 330, 330, 329, 331,
3344, 330, 330, 329, 330,
3347, 330, 330, 329, 330,
3349, 330, 330, 330, 330,
3351, 330, 330, 330, 330,
3354, 330, 330, 330, 330,
3356, 330, 330, 330, 331,
3358, 329, 330, 330, 330,
3361, 329, 329, 330, 330,
3363, 330, 331, 330, 330,
3365, 330, 330, 329, 331,
3368, 330, 330, 330, 330,
3371, 329, 329, 330, 330,
3373, 330, 330, 330, 332,
3376, 330, 330, 330, 331,
3378, 329, 330, 330, 331,
3380, 329, 330, 330, 330,
3383, 330, 330, 331, 330,
3385, 329, 330, 330, 329,
3387, 329, 330, 330, 332,
3390, 330, 330, 330, 330,
3392, 330, 330, 330, 330,
3394, 329, 330, 330, 329,
3397, 330, 330, 330, 331,
3399, 330, 330, 330, 331,
3401, 330, 330, 331, 336,
3403, 330, 330, 330, 330,
3406, 330, 330, 330, 330,
3408, 330, 330, 330, 331,
3410, 330, 330, 330, 330,
3414, 329, 330, 330, 330,
3416, 329, 330, 330, 330,
3418, 330, 330, 335, 330,
3421, 329, 330, 330, 332,
3423, 330, 330, 330, 330,
3425, 329, 330, 330, 330,
3428, 329, 330, 330, 330,
3430, 329, 330, 330, 330,
3432, 329, 330, 330, 331,
3435, 330, 334, 330, 330,
3437, 329, 330, 330, 330,
3439, 330, 330, 330, 330,
3442, 330, 330, 330, 331,
3444, 330, 330, 330, 330,
3446, 329, 330, 329, 329,
3449, 330, 329, 331, 330,
3451, 334, 329, 330, 331,
3453, 330, 329, 330, 331,
3457, 330, 329, 330, 330,
3459, 329, 330, 330, 330,
3461, 330, 330, 330, 330,
3464, 329, 330, 332, 331,
3466, 330, 329, 330, 331,
3468, 329, 330, 331, 330,
3471, 329, 330, 331, 330,
3473, 329, 330, 330, 330,
3475, 330, 329, 330, 331,
3478, 330, 329, 330, 330,
3480, 330, 330, 330, 330,
3482, 329, 328, 331, 330,
3485, 330, 329, 330, 331,
3487, 330, 329, 330, 331,
3489, 330, 329, 330, 331,
3491, 330, 330, 331, 331,
3494, 329, 330, 330, 330,
3496, 330, 329, 330, 330,
3499, 330, 329, 331, 330,
3502, 330, 329, 330, 330,
3504, 330, 329, 330, 329,
3506, 330, 330, 330, 330,
3509, 330, 330, 330, 330,
3511, 330, 329, 330, 331,
3513, 330, 330, 330, 330,
3516, 330, 329, 330, 330,
3518, 330, 329, 330, 331,
3520, 330, 330, 330, 330,
3523, 329, 329, 330, 330,
3525, 330, 330, 330, 330,
3527, 330, 329, 330, 330,
3530, 329, 330, 330, 330,
3532, 330, 329, 330, 330,
3534, 330, 329, 330, 330,
3537, 330, 330, 330, 330,
3539, 330, 331, 330, 330,
3542, 329, 329, 329, 331,
3545, 330, 330, 330, 330,
3547, 330, 329, 330, 330,
3549, 329, 330, 330, 330,
3552, 330, 330, 329, 331,
3554, 330, 330, 330, 330,
3556, 330, 330, 330, 330,
3559, 330, 330, 331, 329,
3561, 330, 330, 329, 330,
3563, 330, 330, 329, 332,
3566, 330, 329, 329, 330,
3568, 330, 330, 330, 330,
3570, 330, 330, 330, 330,
3573, 330, 330, 329, 331,
3575, 330, 330, 330, 331,
3577, 330, 330, 329, 336,
3579, 331, 330, 330, 330,
3582, 330, 330, 330, 330,
3585, 330, 330, 329, 331,
3587, 330, 330, 329, 331,
3590, 329, 330, 330, 331,
3592, 329, 330, 330, 331,
3594, 330, 330, 331, 330,
3597, 330, 330, 329, 332,
3599, 329, 330, 329, 331,
3601, 329, 330, 330, 331,
3604, 330, 330, 330, 330,
3606, 330, 330, 330, 328,
3608, 330, 329, 330, 331,
3611, 330, 333, 330, 332,
3613, 330, 329, 330, 330,
3615, 330, 330, 330, 330,
3618, 331, 329, 330, 331,
3620, 331, 329, 330, 331,
3622, 330, 330, 329, 330,
3625, 330, 328, 331, 330,
3628, 334, 330, 330, 332,
3630, 330, 330, 330, 332,
3633, 330, 330, 329, 331,
3635, 330, 330, 330, 330,
3637, 330, 330, 330, 330,
3640, 329, 331, 330, 331,
3642, 330, 330, 329, 331,
3644, 330, 330, 328, 331,
3647, 330, 331, 330, 330,
3649, 330, 331, 329, 330,
3651, 330, 330, 329, 331,
3654, 330, 330, 329, 331,
3656, 330, 330, 329, 331,
3658, 329, 330, 330, 331,
3661, 330, 330, 330, 331,
3663, 330, 330, 329, 332,
3665, 330, 331, 329, 331,
3667, 330, 331, 330, 331,
3671, 330, 331, 329, 330,
3673, 330, 330, 330, 331,
3675, 329, 330, 330, 330,
3678, 330, 330, 330, 329,
3680, 329, 330, 330, 327,
3682, 330, 330, 330, 328,
3685, 330, 330, 331, 329,
3687, 331, 329, 330, 331,
3689, 331, 330, 331, 331,
3692, 330, 330, 331, 331,
3694, 331, 330, 330, 332,
3696, 330, 330, 330, 332,
3699, 330, 330, 331, 331,
3701, 330, 330, 331, 331,
3703, 331, 330, 331, 331,
3706, 331, 330, 331, 333,
3708, 331, 330, 330, 332,
3710, 330, 330, 331, 332,
3714, 330, 331, 330, 332,
3716, 330, 331, 331, 331,
3718, 330, 330, 331, 332,
3721, 330, 330, 331, 331,
3723, 330, 329, 331, 331,
3725, 330, 331, 331, 332,
3728, 330, 330, 331, 332,
3730, 330, 330, 331, 333,
3732, 330, 329, 331, 331,
3735, 330, 329, 332, 330,
3737, 329, 330, 331, 332,
3739, 330, 330, 331, 332,
3742, 329, 329, 331, 329,
3744, 329, 329, 332, 327,
3746, 329, 330, 332, 328,
3749, 329, 329, 331, 329,
3751, 330, 329, 331, 331,
3753, 331, 329, 332, 331,
3756, 331, 330, 331, 332,
3759, 331, 330, 332, 331,
3761, 331, 330, 331, 332,
3763, 330, 330, 332, 331,
3766, 330, 330, 332, 331,
3768, 330, 330, 332, 331,
3770, 331, 330, 333, 332,
3773, 331, 330, 331, 333,
3775, 331, 330, 332, 331,
3777, 330, 330, 332, 331,
3780, 331, 330, 332, 331,
3782, 330, 330, 331, 329,
3784, 331, 330, 332, 331,
3787, 331, 332, 332, 331,
3789, 330, 330, 332, 330,
3791, 330, 330, 332, 331,
3794, 330, 330, 332, 331,
3796, 331, 329, 332, 331,
3799, 331, 330, 332, 331,
3802, 331, 329, 332, 330,
3804, 332, 330, 332, 330,
3806, 331, 330, 332, 331,
3809, 331, 329, 331, 330,
3811, 331, 330, 333, 330,
3813, 331, 330, 332, 328,
3816, 331, 330, 332, 330,
3818, 332, 330, 332, 329,
3820, 332, 329, 331, 329,
3823, 332, 330, 333, 329,
3825, 332, 331, 332, 329,
3827, 333, 329, 332, 330,
3830, 332, 329, 332, 330,
3832, 330, 329, 331, 330,
3834, 332, 330, 332, 330,
3837, 332, 329, 332, 330,
3840, 333, 330, 331, 330,
3842, 332, 330, 332, 329,
3844, 332, 330, 332, 330,
3847, 333, 329, 331, 329,
3849, 333, 329, 332, 330,
3851, 332, 328, 332, 330,
3854, 333, 329, 332, 329,
3856, 333, 329, 332, 333,
3858, 333, 329, 332, 329,
3861, 333, 329, 332, 330,
3863, 333, 328, 332, 330,
3865, 333, 330, 332, 330,
3868, 332, 330, 333, 330,
3870, 333, 329, 332, 331,
3872, 333, 329, 330, 330,
3875, 333, 329, 333, 330,
3877, 333, 329, 332, 330,
3879, 333, 329, 332, 329,
3883, 332, 329, 331, 329,
3885, 332, 329, 332, 328,
3887, 332, 330, 333, 328,
3890, 332, 331, 332, 330,
3892, 332, 330, 332, 328,
3894, 333, 329, 331, 330,
3897, 333, 330, 332, 330,
3899, 333, 330, 332, 330,
3901, 333, 331, 332, 330,
3904, 333, 330, 332, 331,
3906, 334, 329, 333, 331,
3908, 333, 330, 332, 331,
3911, 333, 329, 333, 330,
3913, 333, 331, 332, 332,
3915, 333, 330, 332, 332,
3918, 333, 330, 331, 330,
3920, 333, 330, 332, 331,
3922, 333, 331, 332, 331,
3926, 333, 330, 331, 331,
3928, 333, 331, 332, 331,
3930, 332, 330, 332, 331,
3932, 333, 331, 331, 332,
3935, 332, 331, 332, 331,
3937, 333, 330, 331, 332,
3939, 333, 330, 331, 332,
3942, 333, 330, 331, 331,
3944, 333, 331, 332, 331,
3946, 333, 331, 332, 331,
3949, 332, 331, 331, 331,
3951, 332, 331, 331, 331,
3953, 332, 331, 331, 331,
3956, 332, 331, 331, 330,
3958, 331, 331, 331, 330,
3960, 331, 330, 331, 331,
3963, 332, 332, 332, 331,
3965, 332, 331, 331, 331,
3968, 333, 331, 331, 331,
3971, 333, 331, 331, 332,
3973, 333, 331, 331, 332,
3975, 333, 331, 329, 332,
3978, 332, 331, 331, 331,
3980, 333, 331, 330, 332,
3982, 332, 330, 331, 332,
3985, 332, 330, 331, 331,
3987, 331, 330, 332, 331,
3989, 331, 331, 331, 331,
3992, 331, 330, 331, 332,
3994, 331, 331, 330, 332,
3996, 331, 331, 330, 332,
3999, 331, 331, 331, 332,
4001, 331, 332, 330, 332,
4003, 332, 331, 330, 332,
4006, 331, 330, 331, 332,
4008, 330, 331, 330, 332,
4011, 330, 331, 330, 332,
4013, 331, 331, 330, 333,
4016, 331, 331, 329, 333,
4018, 331, 331, 330, 333,
4020, 330, 331, 330, 333,
4023, 330, 332, 330, 333,
4025, 330, 331, 330, 334,
4027, 329, 330, 329, 333,
4030, 330, 331, 330, 333,
4032, 330, 331, 329, 336,
4034, 331, 331, 329, 331,
4037, 330, 331, 329, 333,
4039, 330, 330, 329, 333,
4041, 330, 331, 329, 332,
4044, 330, 332, 330, 333,
4046, 331, 331, 329, 333,
4048, 330, 330, 332, 333,
4051, 329, 330, 329, 333,
4054, 330, 331, 329, 333,
4056, 330, 331, 329, 334,
4059, 330, 331, 329, 334,
4061, 330, 330, 328, 333,
4063, 329, 331, 329, 333,
4066, 329, 330, 328, 334,
4068, 329, 331, 329, 332,
4070, 330, 330, 329, 333,
4073, 330, 330, 328, 333,
4075, 329, 331, 329, 333,
4077, 329, 331, 329, 333,
4080, 329, 330, 328, 334,
4082, 331, 331, 328, 332,
4084, 328, 330, 329, 331,
4087, 328, 329, 328, 331,
4089, 329, 331, 327, 332,
4091, 329, 330, 328, 333,
4094, 328, 330, 328, 332,
4097, 329, 330, 328, 333,
4099, 328, 330, 327, 333,
4101, 329, 330, 327, 333,
4104, 328, 330, 327, 333,
4106, 329, 329, 327, 332,
4108, 330, 330, 327, 333,
4111, 329, 330, 326, 334,
4113, 329, 330, 326, 334,
4115, 328, 330, 327, 333,
4118, 329, 329, 327, 333,
4120, 329, 330, 327, 332,
4122, 329, 329, 327, 332,
4125, 329, 330, 326, 333,
4127, 329, 329, 327, 333,
4129, 328, 330, 327, 333,
4132, 328, 330, 327, 332,
4134, 329, 329, 326, 334,
4136, 328, 328, 327, 333,
4140, 329, 330, 326, 333,
4142, 328, 329, 327, 332,
4144, 328, 329, 327, 332,
4147, 329, 329, 326, 333,
4149, 329, 329, 326, 333,
4151, 329, 329, 325, 334,
4154, 328, 330, 327, 333,
4156, 329, 329, 326, 334,
4158, 329, 329, 326, 333,
4161, 329, 329, 326, 333,
4163, 328, 328, 326, 332,
4165, 328, 329, 325, 332,
4168, 328, 329, 325, 332,
4170, 329, 329, 325, 332,
4172, 328, 329, 323, 332,
4175, 328, 329, 325, 332,
4177, 328, 329, 325, 330,
4179, 328, 328, 324, 332,
4183, 328, 328, 325, 332,
4185, 327, 329, 325, 332,
4187, 328, 329, 325, 332,
4189, 328, 328, 324, 332,
4192, 328, 329, 324, 332,
4194, 328, 329, 325, 332,
4196, 327, 329, 325, 331,
4199, 328, 329, 325, 332,
4201, 328, 328, 324, 333,
4203, 328, 328, 325, 331,
4206, 328, 328, 325, 331,
4208, 328, 328, 325, 332,
4210, 328, 329, 325, 330,
4213, 328, 328, 325, 331,
4215, 327, 328, 325, 331,
4217, 328, 329, 325, 330,
4220, 327, 330, 325, 330,
4222, 327, 328, 325, 331,
4225, 327, 328, 328, 331,
4228, 327, 328, 326, 330,
4230, 327, 329, 326, 330,
4232, 328, 328, 326, 331,
4235, 327, 328, 326, 331,
4237, 327, 327, 326, 328,
4239, 326, 328, 326, 329,
4242, 326, 332, 326, 331,
4244, 327, 328, 326, 331,
4246, 327, 328, 326, 331,
4249, 327, 328, 325, 331,
4251, 326, 329, 327, 331,
4253, 326, 329, 326, 331,
4256, 327, 328, 326, 331,
4258, 331, 328, 326, 332,
4260, 326, 328, 327, 331,
4263, 327, 329, 326, 331,
4265, 327, 329, 326, 332,
4268, 327, 329, 326, 332,
4271, 325, 328, 326, 331,
4273, 326, 328, 326, 331,
4275, 327, 329, 326, 330,
4277, 326, 328, 326, 332,
4280, 326, 328, 326, 331,
4282, 326, 328, 326, 331,
4284, 326, 328, 326, 331,
4287, 326, 328, 326, 330,
4289, 326, 328, 326, 331,
4291, 325, 328, 326, 331,
4294, 325, 327, 326, 331,
4296, 326, 329, 326, 331,
4298, 326, 328, 326, 332,
4301, 326, 328, 326, 332,
4303, 326, 329, 326, 331,
4305, 325, 328, 326, 330,
4308, 327, 328, 326, 331,
4311, 326, 328, 326, 331,
4313, 326, 327, 326, 331,
4316, 326, 328, 326, 331,
4318, 326, 329, 326, 330,
4320, 326, 329, 326, 329,
4323, 326, 328, 326, 330,
4325, 326, 328, 326, 330,
4327, 326, 328, 328, 329,
4330, 326, 329, 326, 330,
4332, 326, 328, 325, 330,
4334, 326, 328, 325, 330,
4337, 326, 328, 326, 330,
4339, 325, 327, 326, 330,
4341, 325, 329, 325, 330,
4344, 326, 327, 325, 330,
4346, 326, 327, 325, 330,
4348, 326, 327, 326, 329,
4352, 326, 328, 325, 330,
4354, 326, 328, 325, 328,
4356, 326, 328, 326, 330,
4359, 326, 327, 326, 329,
4361, 325, 327, 326, 329,
4363, 326, 327, 326, 328,
4365, 326, 327, 326, 329,
4368, 326, 327, 326, 329,
4370, 325, 327, 326, 329,
4372, 326, 327, 326, 329,
4375, 326, 327, 325, 329,
4377, 326, 326, 325, 329,
4379, 324, 328, 325, 328,
4382, 325, 327, 325, 328,
4384, 324, 327, 325, 328,
4386, 325, 328, 324, 328,
4389, 324, 328, 324, 328,
4391, 324, 327, 324, 328,
4393, 325, 328, 324, 328,
4397, 324, 329, 324, 327,
4399, 324, 327, 323, 328,
4401, 324, 327, 324, 328,
4404, 324, 327, 324, 328,
4406, 324, 328, 323, 327,
4408, 324, 328, 322, 328,
4411, 324, 328, 323, 328,
4413, 323, 327, 322, 328,
4415, 323, 328, 323, 327,
4418, 324, 331, 322, 327,
4420, 323, 328, 322, 329,
4422, 324, 327, 322, 328,
4425, 323, 328, 320, 327,
4427, 323, 328, 321, 327,
4429, 323, 329, 320, 328,
4432, 323, 328, 321, 328,
4434, 327, 328, 321, 328,
4436, 323, 327, 321, 328,
4440, 324, 329, 320, 328,
4442, 324, 329, 319, 328,
4444, 323, 328, 319, 328,
4447, 322, 328, 319, 327,
4449, 322, 328, 319, 327,
4451, 322, 328, 319, 327,
4453, 322, 328, 318, 328,
4456, 322, 328, 317, 327,
4458, 322, 328, 318, 327,
4460, 322, 328, 317, 328,
4463, 320, 328, 317, 326,
4465, 322, 328, 317, 328,
4467, 321, 328, 317, 327,
4470, 322, 328, 316, 327,
4472, 322, 329, 315, 327,
4474, 322, 328, 315, 327,
4477, 322, 328, 315, 328,
4480, 323, 329, 314, 327,
4482, 321, 329, 314, 327,
4485, 322, 329, 313, 328,
4487, 321, 328, 312, 330,
4489, 321, 328, 312, 327,
4492, 321, 329, 312, 328,
4494, 321, 329, 311, 327,
4496, 321, 328, 310, 326,
4499, 321, 328, 310, 328,
4501, 321, 328, 310, 327,
4503, 321, 328, 312, 328,
4506, 321, 329, 309, 328,
4508, 320, 329, 308, 328,
4510, 321, 328, 307, 328,
4513, 321, 327, 308, 327,
4515, 321, 327, 307, 327,
4517, 321, 328, 306, 328,
4520, 320, 327, 306, 328,
4523, 321, 327, 305, 327,
4525, 321, 327, 305, 327,
4528, 321, 328, 304, 327,
4530, 319, 328, 303, 327,
4532, 320, 327, 302, 327,
4535, 320, 327, 303, 327,
4537, 319, 328, 302, 327,
4539, 320, 328, 301, 327,
4541, 320, 327, 301, 327,
4544, 320, 327, 301, 327,
4546, 320, 327, 301, 327,
4548, 321, 328, 300, 327,
4551, 320, 327, 299, 326,
4553, 320, 327, 299, 328,
4555, 320, 327, 299, 327,
4558, 320, 327, 299, 327,
4560, 319, 327, 298, 327,
4562, 320, 327, 298, 329,
4566, 320, 327, 297, 327,
4568, 320, 326, 297, 327,
4570, 320, 326, 296, 326,
4573, 320, 327, 297, 326,
4575, 320, 326, 295, 327,
4577, 320, 326, 297, 328,
4580, 320, 325, 296, 327,
4582, 320, 327, 296, 327,
4584, 320, 326, 295, 328,
4587, 320, 327, 295, 328,
4589, 320, 326, 294, 327,
4591, 319, 327, 295, 328,
4594, 320, 327, 294, 328,
4596, 320, 326, 294, 329,
4598, 320, 326, 294, 328,
4601, 320, 326, 293, 327,
4603, 319, 326, 294, 327,
4605, 319, 327, 293, 328,
4609, 320, 326, 294, 328,
4611, 323, 326, 294, 327,
4613, 320, 326, 294, 327,
4616, 320, 326, 294, 327,
4618, 320, 326, 294, 328,
4620, 320, 326, 293, 327,
4622, 319, 325, 294, 327,
4625, 320, 325, 294, 327,
4627, 321, 326, 293, 327,
4629, 320, 326, 293, 327,
4632, 320, 326, 293, 327,
4634, 321, 326, 294, 327,
4636, 321, 326, 293, 326,
4639, 320, 326, 293, 326,
4641, 320, 326, 293, 327,
4643, 320, 325, 293, 327,
4646, 320, 327, 293, 327,
4648, 320, 326, 293, 326,
4651, 320, 326, 293, 327,
4654, 320, 326, 293, 327,
4656, 320, 327, 292, 328,
4658, 320, 327, 292, 326,
4661, 321, 327, 292, 328,
4663, 320, 326, 292, 332,
4665, 320, 327, 292, 327,
4668, 320, 327, 292, 327,
4670, 320, 327, 292, 326,
4672, 321, 327, 292, 327,
4675, 321, 327, 292, 327,
4677, 320, 326, 291, 327,
4679, 321, 327, 295, 327,
4682, 320, 328, 292, 327,
4684, 320, 328, 291, 328,
4686, 320, 327, 291, 327,
4689, 321, 327, 291, 327,
4691, 320, 326, 292, 327,
4694, 321, 328, 291, 327,
4697, 321, 327, 291, 326,
4699, 321, 327, 291, 327,
4701, 320, 328, 291, 327,
4704, 320, 327, 291, 328,
4706, 320, 327, 291, 328,
4708, 320, 326, 291, 327,
4710, 319, 326, 292, 327,
4713, 319, 327, 292, 326,
4715, 320, 328, 291, 326,
4717, 320, 327, 291, 327,
4720, 320, 328, 292, 327,
4722, 320, 327, 292, 327,
4724, 320, 328, 292, 327,
4727, 320, 328, 292, 328,
4729, 320, 328, 292, 328,
4731, 319, 328, 293, 327,
4734, 319, 327, 293, 327,
4737, 319, 328, 292, 328,
4739, 320, 328, 292, 329,
4742, 320, 328, 293, 328,
4744, 320, 327, 293, 327,
4746, 319, 328, 293, 327,
4749, 319, 329, 293, 327,
4751, 320, 327, 293, 328,
4753, 319, 328, 293, 328,
4756, 319, 327, 294, 327,
4758, 320, 329, 293, 327,
4760, 320, 328, 293, 328,
4763, 320, 328, 293, 328,
4765, 320, 327, 294, 327,
4767, 320, 327, 294, 327,
4770, 320, 328, 294, 328,
4772, 319, 328, 293, 329,
4774, 319, 328, 292, 328,
4777, 320, 328, 294, 327,
4780, 319, 328, 293, 327,
4782, 319, 329, 293, 328,
4785, 320, 328, 293, 328,
4787, 320, 328, 294, 328,
4789, 319, 328, 294, 327,
4792, 320, 328, 294, 328,
4794, 320, 328, 293, 328,
4796, 321, 328, 293, 328,
4798, 320, 327, 294, 329,
4801, 320, 326, 294, 328,
4803, 320, 328, 293, 329,
4805, 320, 327, 294, 328,
4808, 320, 327, 293, 328,
4810, 320, 328, 294, 328,
4812, 321, 328, 294, 328,
4815, 320, 328, 294, 327,
4817, 320, 328, 294, 328,
4819, 320, 327, 294, 328,
4823, 320, 328, 294, 328,
4825, 320, 328, 294, 328,
4827, 320, 328, 294, 328,
4830, 321, 328, 294, 329,
4832, 320, 328, 294, 329,
4834, 321, 329, 295, 329,
4837, 321, 329, 295, 329,
4839, 321, 328, 295, 333,
4841, 320, 329, 295, 329,
4844, 321, 328, 296, 329,
4846, 321, 329, 295, 328,
4848, 321, 328, 295, 330,
4851, 321, 328, 295, 329,
4853, 321, 328, 295, 329,
4855, 321, 328, 297, 329,
4858, 322, 329, 296, 329,
4860, 322, 328, 296, 330,
4862, 322, 328, 296, 328,
4866, 322, 327, 297, 329,
4868, 322, 329, 296, 329,
4870, 322, 328, 296, 329,
4873, 321, 326, 297, 329,
4875, 320, 328, 297, 329,
4877, 321, 328, 296, 329,
4880, 321, 328, 297, 329,
4882, 321, 328, 296, 330,
4884, 322, 326, 297, 330,
4886, 322, 327, 298, 328,
4889, 326, 327, 298, 328,
4891, 322, 327, 298, 328,
4893, 321, 327, 299, 329,
4896, 322, 328, 299, 329,
4898, 322, 329, 299, 328,
4900, 324, 329, 299, 329,
4903, 324, 329, 299, 328,
4905, 323, 328, 299, 330,
4908, 322, 329, 299, 329,
4911, 323, 328, 301, 328,
4913, 322, 328, 300, 329,
4915, 322, 329, 300, 330,
4918, 322, 330, 301, 329,
4920, 322, 329, 301, 329,
4922, 322, 328, 301, 328,
4925, 321, 329, 301, 328,
4927, 322, 328, 301, 329,
4929, 322, 326, 302, 329,
4932, 322, 327, 302, 328,
4934, 322, 327, 302, 328,
4936, 322, 327, 302, 330,
4939, 322, 328, 303, 329,
4941, 322, 328, 303, 328,
4943, 322, 327, 304, 329,
4946, 323, 329, 303, 330,
4948, 322, 328, 304, 330,
4951, 323, 329, 304, 329,
4954, 323, 328, 305, 329,
4956, 322, 329, 305, 329,
4958, 322, 329, 306, 331,
4961, 322, 329, 306, 329,
4963, 323, 329, 306, 329,
4965, 322, 330, 307, 329,
4968, 323, 330, 307, 328,
4970, 323, 329, 306, 330,
4972, 323, 329, 307, 330,
4974, 323, 329, 308, 329,
4977, 323, 328, 308, 329,
4979, 324, 329, 309, 330,
4981, 324, 329, 310, 329,
4984, 323, 329, 311, 329,
4986, 324, 329, 311, 329,
4988, 324, 329, 311, 329,
4992, 322, 329, 312, 331,
4994, 324, 328, 312, 330,
4996, 324, 328, 313, 330,
4999, 324, 330, 314, 330,
5001, 324, 329, 315, 329,
5003, 324, 329, 316, 330,
5006, 324, 328, 316, 330,
5008, 325, 327, 316, 329,
5010, 325, 327, 317, 329,
5013, 326, 328, 318, 329,
5015, 325, 328, 319, 334,
5017, 325, 329, 320, 329,
5020, 326, 329, 321, 329,
5022, 326, 329, 321, 328,
5024, 327, 329, 322, 330,
5027, 326, 329, 322, 329,
5029, 327, 329, 322, 329,
5031, 327, 329, 328, 330,
5035, 326, 330, 325, 329,
5037, 329, 330, 326, 330,
5039, 327, 329, 327, 329,
5042, 327, 330, 328, 329,
5044, 327, 331, 328, 329,
5046, 328, 330, 329, 330,
5049, 328, 332, 330, 328,
5051, 328, 330, 330, 329,
5053, 329, 331, 332, 329,
5056, 329, 331, 332, 329,
5058, 329, 332, 332, 330,
5060, 329, 331, 332, 329,
5062, 329, 331, 334, 329,
5065, 333, 332, 335, 328,
5067, 329, 331, 335, 328,
5069, 330, 330, 336, 329,
5072, 330, 331, 337, 329,
5074, 330, 331, 338, 329,
5076, 331, 330, 338, 329,
5080, 331, 331, 338, 330,
5082, 331, 332, 340, 329,
5084, 330, 332, 341, 329,
5087, 331, 330, 342, 329,
5089, 331, 331, 342, 330,
5091, 331, 330, 343, 330,
5094, 331, 330, 345, 330,
5096, 331, 330, 345, 329,
5098, 332, 331, 345, 329,
5101, 331, 332, 345, 328,
5103, 332, 331, 346, 329,
5105, 331, 331, 346, 330,
5108, 331, 332, 347, 329,
5110, 332, 332, 347, 328,
5112, 332, 332, 346, 330,
5115, 333, 332, 347, 329,
5117, 333, 332, 349, 329,
5120, 332, 332, 349, 329,
5123, 333, 333, 348, 329,
5125, 332, 333, 349, 330,
5127, 334, 333, 348, 329,
5130, 333, 332, 351, 328,
5132, 333, 333, 350, 329,
5134, 334, 334, 350, 328,
5137, 334, 333, 352, 328,
5139, 334, 333, 351, 329,
5141, 334, 333, 352, 328,
5144, 334, 332, 352, 329,
5146, 334, 331, 352, 329,
5148, 334, 331, 353, 329,
5150, 333, 331, 353, 328,
5153, 334, 332, 353, 329,
5155, 335, 331, 353, 330,
5157, 334, 330, 354, 329,
5160, 335, 330, 355, 329,
5163, 335, 331, 356, 328,
5165, 335, 331, 356, 328,
5168, 335, 331, 356, 329,
5170, 335, 331, 357, 329,
5172, 335, 332, 357, 329,
5175, 336, 333, 358, 328,
5177, 336, 333, 358, 328,
5179, 336, 332, 358, 330,
5182, 337, 333, 358, 329,
5184, 337, 332, 359, 328,
5186, 337, 334, 359, 329,
5189, 337, 334, 359, 330,
5191, 336, 334, 359, 330,
5193, 335, 334, 359, 329,
5196, 336, 335, 359, 329,
5198, 335, 334, 359, 329,
5200, 336, 334, 359, 330,
5203, 336, 334, 360, 329,
5206, 336, 333, 359, 329,
5208, 336, 333, 361, 330,
5211, 336, 333, 361, 329,
5213, 337, 333, 361, 330,
5215, 337, 333, 361, 329,
5218, 336, 333, 362, 330,
5220, 337, 334, 361, 328,
5222, 337, 333, 361, 331,
5225, 337, 334, 362, 330,
5227, 337, 332, 362, 330,
5229, 337, 332, 362, 330,
5231, 338, 333, 362, 330,
5234, 338, 333, 362, 331,
5236, 338, 334, 362, 331,
5238, 337, 334, 363, 330,
5241, 339, 334, 363, 329,
5243, 338, 334, 363, 329,
5245, 338, 334, 363, 330,
5249, 338, 334, 364, 330,
5251, 338, 334, 363, 330,
5253, 338, 333, 364, 329,
5256, 338, 334, 364, 330,
5258, 338, 334, 364, 329,
5260, 337, 333, 364, 329,
5263, 338, 332, 365, 329,
5265, 338, 333, 364, 329,
5267, 338, 333, 363, 330,
5270, 337, 334, 364, 329,
5272, 338, 334, 365, 329,
5274, 338, 333, 364, 328,
5277, 338, 334, 365, 330,
5279, 338, 333, 364, 329,
5281, 338, 332, 365, 328,
5284, 338, 333, 365, 328,
5286, 339, 333, 364, 330,
5288, 338, 332, 363, 329,
5292, 339, 332, 364, 328,
5294, 338, 331, 365, 331,
5296, 339, 333, 365, 328,
5299, 339, 333, 365, 329,
5301, 339, 333, 364, 328,
5303, 338, 333, 365, 328,
5306, 339, 335, 366, 327,
5308, 338, 336, 365, 327,
5310, 339, 335, 365, 327,
5313, 338, 334, 366, 328,
5315, 339, 335, 365, 328,
5317, 338, 334, 365, 327,
5319, 339, 334, 366, 328,
5322, 339, 334, 365, 328,
5324, 339, 333, 366, 328,
5326, 338, 336, 365, 328,
5329, 338, 333, 365, 327,
5331, 338, 333, 366, 328,
5334, 337, 332, 365, 328,
5337, 337, 332, 366, 328,
5339, 337, 333, 366, 327,
5341, 337, 333, 365, 328,
5344, 335, 334, 366, 327,
5346, 337, 332, 365, 328,
5348, 336, 333, 365, 327,
5351, 336, 333, 365, 327,
5353, 336, 332, 364, 326,
5355, 337, 332, 364, 328,
5358, 337, 332, 364, 328,
5360, 337, 332, 365, 328,
5362, 337, 332, 365, 327,
5365, 337, 332, 364, 329,
5367, 338, 332, 365, 328,
5369, 337, 332, 365, 327,
5372, 337, 332, 366, 326,
5374, 338, 332, 364, 328,
5377, 337, 331, 364, 328,
5380, 337, 331, 364, 327,
5382, 336, 331, 364, 327,
5384, 336, 330, 366, 328,
5387, 335, 332, 364, 328,
5389, 335, 332, 363, 327,
5391, 336, 331, 364, 327,
5394, 335, 332, 364, 327,
5396, 335, 332, 363, 326,
5398, 336, 331, 363, 328,
5401, 336, 331, 363, 328,
5403, 336, 331, 363, 328,
5405, 335, 331, 363, 328,
5407, 335, 331, 362, 328,
5410, 335, 331, 362, 329,
5412, 335, 331, 361, 328,
5414, 335, 331, 362, 328,
5417, 336, 330, 361, 329,
5420, 335, 330, 362, 329,
5422, 334, 330, 362, 328,
5425, 335, 330, 363, 328,
5427, 335, 331, 362, 327,
5429, 335, 330, 362, 327,
5432, 335, 331, 361, 328,
5434, 335, 331, 361, 328,
5436, 335, 330, 361, 328,
5439, 335, 329, 361, 327,
5441, 336, 328, 360, 328,
5443, 335, 327, 360, 328,
5446, 334, 328, 362, 328,
5448, 335, 329, 362, 327,
5450, 335, 329, 361, 327,
5453, 335, 330, 361, 329,
5455, 335, 331, 360, 328,
5457, 334, 331, 361, 328,
5460, 334, 332, 361, 327,
5463, 332, 332, 361, 327,
5465, 334, 331, 360, 328,
5468, 333, 331, 360, 328,
5470, 334, 331, 360, 327,
5472, 333, 333, 360, 327,
5475, 334, 332, 359, 328,
5477, 334, 332, 359, 328,
5479, 333, 331, 359, 328,
5482, 332, 332, 359, 327,
5484, 334, 333, 359, 328,
5486, 333, 332, 363, 328,
5489, 333, 331, 359, 328,
5491, 333, 331, 359, 328,
5493, 333, 332, 358, 327,
5495, 333, 332, 358, 328,
5498, 333, 331, 359, 328,
5500, 333, 331, 359, 328,
5502, 333, 334, 358, 329,
5506, 333, 333, 358, 327,
5508, 333, 332, 357, 329,
5510, 333, 331, 357, 329,
5513, 333, 330, 358, 329,
5515, 333, 329, 358, 330,
5517, 333, 329, 357, 329,
5520, 334, 329, 357, 328,
5522, 333, 330, 358, 328,
5524, 334, 331, 359, 328,
5527, 333, 332, 358, 328,
5529, 333, 331, 358, 327,
5531, 333, 331, 358, 329,
5534, 333, 331, 357, 329,
5536, 333, 332, 358, 329,
5538, 334, 332, 357, 329,
5541, 334, 332, 357, 330,
5543, 334, 332, 357, 330,
5545, 333, 332, 357, 329,
5549, 334, 332, 357, 329,
5551, 334, 332, 357, 330,
5553, 334, 331, 356, 330,
5556, 334, 331, 356, 330,
5558, 334, 331, 357, 329,
5560, 334, 332, 357, 330,
5563, 334, 332, 356, 330,
5565, 334, 332, 356, 330,
5567, 335, 331, 356, 330,
5570, 335, 331, 356, 329,
5572, 334, 332, 356, 329,
5574, 335, 331, 356, 330,
5577, 335, 331, 357, 330,
5579, 335, 329, 356, 330,
5581, 335, 329, 356, 329,
5583, 336, 328, 355, 330,
5586, 335, 328, 356, 330,
5588, 335, 329, 356, 330,
5591, 335, 329, 356, 330,
5594, 336, 330, 357, 330,
5596, 335, 330, 356, 331,
5598, 336, 330, 356, 331,
5601, 336, 331, 356, 330,
5603, 336, 331, 355, 330,
5605, 336, 331, 355, 332,
5608, 336, 332, 355, 331,
5610, 335, 331, 355, 331,
5612, 335, 331, 355, 330,
5615, 335, 332, 355, 330,
5617, 336, 331, 354, 331,
5619, 335, 330, 354, 330,
5622, 335, 331, 355, 331,
5624, 335, 330, 356, 330,
5626, 336, 331, 354, 331,
5629, 335, 331, 354, 332,
5632, 336, 330, 354, 331,
5634, 336, 331, 353, 330,
5637, 336, 331, 353, 331,
5639, 336, 331, 353, 331,
5641, 336, 330, 354, 332,
5644, 336, 330, 354, 331,
5646, 336, 330, 354, 333,
5648, 336, 330, 354, 331,
5651, 337, 330, 354, 332,
5653, 337, 329, 353, 332,
5655, 337, 329, 354, 331,
5658, 336, 329, 354, 330,
5660, 336, 330, 353, 332,
5662, 336, 329, 357, 331,
5665, 336, 329, 353, 331,
5667, 337, 330, 353, 331,
5669, 336, 330, 353, 332,
5671, 337, 331, 353, 332,
5675, 337, 330, 353, 332,
5677, 337, 330, 353, 332,
5679, 337, 335, 353, 332,
5682, 336, 332, 352, 332,
5684, 336, 331, 352, 333,
5686, 337, 330, 352, 332,
5689, 336, 330, 352, 332,
5691, 336, 331, 352, 332,
5693, 337, 331, 352, 333,
5696, 340, 331, 352, 333,
5698, 337, 330, 352, 332,
5700, 336, 331, 352, 332,
5703, 336, 331, 351, 332,
5705, 336, 331, 350, 333,
5707, 337, 330, 351, 333,
5710, 337, 330, 351, 333,
5712, 337, 331, 352, 332,
5714, 337, 331, 351, 332,
5718, 337, 330, 352, 334,
5720, 337, 330, 351, 333,
5722, 337, 331, 351, 333,
5725, 336, 331, 351, 333,
5727, 337, 331, 351, 334,
5729, 337, 330, 351, 334,
5732, 337, 330, 351, 333,
5734, 337, 330, 352, 333,
5736, 336, 331, 351, 334,
5739, 336, 331, 351, 333,
5741, 337, 330, 351, 334,
5743, 337, 331, 350, 333,
5746, 337, 331, 351, 334,
5748, 336, 332, 351, 333,
5750, 337, 331, 351, 334,
5753, 337, 331, 351, 334,
5755, 337, 330, 351, 334,
5757, 336, 331, 351, 333,
5760, 337, 331, 350, 334,
5763, 337, 331, 350, 334,
5765, 337, 332, 351, 334,
5767, 336, 330, 351, 334,
5770, 337, 331, 351, 335,
5772, 337, 331, 350, 335,
5774, 336, 330, 351, 334,
5777, 336, 331, 351, 334,
5779, 336, 331, 350, 334,
5781, 336, 331, 350, 334,
5784, 336, 331, 350, 334,
5786, 336, 331, 351, 334,
5788, 337, 331, 350, 334,
5791, 336, 332, 351, 333,
5793, 337, 331, 350, 333,
5795, 336, 331, 350, 334,
5798, 335, 331, 350, 334,
5800, 336, 330, 351, 333,
5803, 336, 331, 350, 334,
5806, 336, 331, 350, 335,
5808, 336, 331, 350, 334,
5810, 336, 332, 349, 334,
5813, 336, 332, 350, 334,
5815, 336, 330, 350, 333,
5817, 336, 331, 349, 334,
5820, 335, 331, 349, 334,
5822, 335, 331, 349, 335,
5824, 335, 332, 349, 334,
5827, 336, 331, 349, 335,
5829, 336, 331, 348, 334,
5831, 335, 331, 348, 334,
5834, 335, 331, 349, 333,
5836, 335, 331, 348, 335,
5838, 335, 331, 350, 334,
5840, 335, 332, 349, 334,
5843, 336, 331, 349, 334,
5846, 335, 331, 348, 333,
5848, 335, 331, 348, 334,
5851, 335, 331, 348, 333,
5853, 335, 330, 348, 334,
5855, 335, 335, 348, 335,
5858, 334, 332, 348, 334,
5860, 335, 332, 347, 334,
5862, 335, 331, 348, 334,
5865, 335, 331, 348, 334,
5867, 334, 331, 347, 335,
5869, 335, 331, 347, 334,
5872, 338, 331, 348, 334,
5874, 335, 332, 348, 333,
5876, 334, 332, 348, 333,
5879, 334, 332, 347, 333,
5881, 335, 331, 347, 335,
5883, 335, 329, 348, 334,
5886, 335, 331, 346, 333,
5889, 334, 332, 348, 334,
5891, 335, 331, 347, 333,
5894, 334, 331, 347, 334,
5896, 335, 331, 347, 334,
5898, 335, 331, 347, 334,
5901, 334, 331, 347, 334,
5903, 335, 331, 347, 334,
5905, 334, 331, 347, 334,
5908, 334, 331, 347, 333,
5910, 334, 331, 347, 333,
5912, 334, 332, 347, 334,
5915, 334, 331, 347, 334,
5917, 335, 331, 347, 334,
5919, 334, 331, 345, 334,
5922, 334, 331, 346, 334,
5924, 334, 332, 346, 333,
5926, 334, 330, 347, 334,
5928, 334, 331, 347, 334,
5932, 334, 331, 347, 333,
5934, 334, 331, 346, 333,
5936, 334, 331, 346, 334,
5939, 334, 331, 346, 334,
5941, 334, 331, 349, 333,
5943, 333, 331, 346, 333,
5946, 334, 331, 346, 334,
5948, 334, 331, 346, 335,
5950, 334, 331, 346, 333,
5953, 334, 331, 346, 333,
5955, 333, 331, 346, 333,
5957, 334, 331, 346, 333,
5960, 334, 331, 345, 333,
5962, 333, 330, 345, 333,
5964, 334, 331, 345, 333,
5967, 333, 332, 345, 333,
5969, 333, 331, 344, 333,
5971, 333, 330, 345, 334,
5975, 333, 332, 345, 333,
5977, 333, 330, 346, 333,
5979, 333, 330, 345, 334,
5982, 333, 331, 345, 334,
5984, 333, 331, 344, 333,
5986, 333, 331, 345, 333,
5989, 333, 332, 345, 332,
5991, 333, 331, 345, 333,
5993, 333, 331, 344, 333,
5996, 333, 331, 344, 333,
5998, 333, 332, 345, 333,
6000, 332, 332, 345, 333,
6003, 333, 331, 344, 334,
6005, 333, 331, 344, 333,
6007, 333, 331, 345, 333,
6010, 333, 331, 344, 334,
6012, 333, 331, 344, 334,
6014, 333, 331, 345, 333,
6017, 332, 332, 344, 333,
6020, 333, 332, 344, 333,
6022, 332, 331, 344, 332,
6024, 332, 331, 343, 334,
6027, 332, 331, 344, 333,
6029, 332, 331, 344, 333,
6031, 333, 332, 344, 333,
6034, 332, 332, 344, 332,
6036, 332, 331, 343, 334,
6038, 332, 330, 344, 334,
6041, 332, 330, 344, 333,
6043, 332, 331, 344, 334,
6045, 332, 331, 344, 334,
6048, 336, 331, 344, 334,
6050, 332, 331, 344, 334,
6052, 331, 331, 344, 333,
6055, 332, 331, 344, 333,
6057, 332, 331, 344, 333,
6060, 332, 329, 343, 333,
6063, 332, 331, 342, 333,
6065, 333, 332, 343, 333,
6067, 332, 332, 343, 332,
6070, 332, 331, 342, 334,
6072, 332, 331, 342, 333,
6074, 331, 331, 343, 333,
6077, 330, 333, 343, 334,
6079, 332, 331, 342, 334,
6081, 332, 331, 342, 333,
6084, 331, 331, 343, 333,
6086, 331, 331, 342, 333,
6088, 331, 332, 342, 333,
6091, 331, 331, 342, 333,
6093, 331, 331, 342, 333,
6095, 331, 331, 341, 333,
6098, 331, 331, 342, 333,
6100, 330, 332, 341, 337,
6103, 331, 331, 342, 333,
6105, 331, 332, 342, 332,
6108, 330, 331, 341, 332,
6110, 330, 331, 341, 332,
6112, 331, 331, 341, 333,
6115, 331, 331, 341, 333,
6117, 331, 331, 344, 333,
6119, 332, 331, 341, 332,
6122, 331, 332, 341, 333,
6124, 331, 330, 341, 333,
6126, 330, 331, 341, 332,
6129, 331, 330, 342, 332,
6131, 331, 331, 341, 332,
6133, 331, 330, 341, 332,
6136, 331, 331, 340, 333,
6138, 331, 330, 341, 333,
6140, 331, 331, 340, 332,
6144, 330, 331, 341, 332,
6146, 331, 331, 340, 333,
6148, 331, 330, 340, 333,
6151, 329, 330, 341, 332,
6153, 330, 330, 341, 332,
6155, 331, 330, 340, 333,
6158, 331, 330, 340, 333,
6160, 331, 330, 340, 333,
6162, 330, 330, 340, 332,
6165, 330, 331, 340, 332,
6167, 330, 330, 340, 334,
6169, 329, 330, 340, 333,
6172, 330, 330, 339, 333,
6174, 330, 331, 340, 333,
6176, 330, 331, 340, 332,
6179, 330, 330, 339, 333,
6181, 330, 330, 340, 333,
6183, 330, 331, 340, 333,
6187, 330, 331, 340, 334,
6189, 331, 330, 340, 333,
6191, 331, 330, 340, 333,
6193, 329, 331, 340, 332,
6196, 330, 331, 339, 332,
6198, 330, 330, 339, 333,
6200, 330, 330, 339, 333,
6203, 330, 330, 340, 332,
6205, 330, 330, 340, 333,
6207, 331, 331, 339, 333,
6210, 330, 331, 339, 332,
6212, 331, 330, 339, 333,
6214, 330, 330, 339, 334,
6217, 330, 330, 339, 333,
6219, 330, 331, 338, 333,
6221, 330, 330, 339, 333,
6224, 331, 330, 338, 333,
6226, 330, 331, 339, 332,
6228, 330, 330, 339, 332,
6232, 330, 331, 338, 333,
6234, 330, 330, 338, 334,
6236, 330, 328, 338, 333,
6239, 330, 330, 338, 333,
6241, 330, 331, 338, 332,
6243, 331, 330, 338, 332,
6246, 331, 330, 338, 333,
6248, 331, 330, 338, 333,
6250, 330, 330, 338, 333,
6253, 329, 330, 337, 333,
6255, 331, 330, 338, 334,
6257, 331, 330, 338, 333,
6260, 331, 330, 338, 332,
6262, 331, 328, 338, 331,
6264, 331, 331, 338, 332,
6267, 331, 329, 338, 332,
6269, 331, 329, 338, 331,
6272, 331, 329, 338, 331,
6275, 331, 329, 338, 332,
6277, 331, 330, 338, 337,
6279, 331, 329, 338, 333,
6281, 331, 329, 338, 332,
6284, 331, 330, 338, 332,
6286, 331, 330, 338, 332,
6288, 331, 329, 337, 333,
6291, 332, 329, 337, 333,
6293, 331, 329, 341, 332,
6295, 331, 330, 338, 332,
6298, 332, 329, 337, 333,
6300, 332, 329, 338, 333,
6302, 331, 330, 338, 333,
6305, 331, 329, 339, 332,
6307, 331, 329, 337, 332,
6309, 331, 331, 337, 333,
6312, 332, 329, 337, 333,
6315, 332, 329, 337, 332,
6317, 332, 329, 337, 332,
6320, 332, 331, 338, 332,
6322, 332, 330, 337, 332,
6324, 332, 329, 337, 332,
6327, 335, 330, 338, 332,
6329, 331, 330, 338, 332,
6331, 332, 329, 336, 333,
6334, 332, 329, 337, 332,
6336, 332, 329, 338, 332,
6338, 332, 329, 337, 331,
6341, 332, 331, 337, 331,
6343, 332, 330, 337, 333,
6345, 331, 330, 336, 331,
6348, 332, 329, 335, 331,
6350, 331, 330, 336, 332,
6352, 332, 330, 336, 331,
6355, 332, 329, 336, 332,
6358, 332, 329, 336, 332,
6360, 331, 330, 336, 331,
6363, 332, 330, 336, 332,
6365, 332, 330, 336, 333,
6367, 332, 330, 336, 331,
6369, 331, 331, 336, 332,
6372, 332, 331, 336, 332,
6374, 331, 330, 336, 333,
6376, 332, 330, 336, 333,
6379, 331, 330, 335, 332,
6381, 331, 331, 336, 332,
6383, 332, 331, 335, 331,
6386, 331, 331, 335, 331,
6388, 332, 330, 335, 333,
6390, 332, 330, 336, 332,
6393, 331, 331, 336, 332,
6395, 331, 331, 335, 332,
6397, 332, 331, 334, 333,
6401, 332, 331, 335, 333,
6403, 332, 331, 335, 332,
6405, 332, 331, 335, 332,
6408, 332, 332, 335, 332,
6410, 332, 332, 334, 334,
6412, 332, 331, 335, 333,
6415, 332, 331, 335, 332,
6417, 332, 331, 334, 332,
6419, 332, 331, 334, 332,
6422, 332, 331, 334, 333,
6424, 332, 331, 334, 332,
6426, 332, 332, 335, 332,
6429, 330, 331, 334, 333,
6431, 332, 331, 334, 333,
6433, 332, 331, 334, 333,
6436, 332, 330, 335, 333,
6438, 332, 330, 334, 332,
6440, 333, 331, 334, 333,
6444, 332, 331, 334, 333,
6446, 332, 330, 334, 332,
6448, 332, 331, 334, 332,
6450, 332, 331, 334, 333,
6453, 332, 331, 334, 338,
6455, 332, 330, 334, 333,
6457, 332, 330, 334, 333,
6460, 332, 331, 333, 332,
6462, 332, 331, 334, 332,
6464, 332, 330, 333, 333,
6467, 332, 330, 333, 333,
6469, 332, 331, 337, 332,
6471, 332, 330, 334, 332,
6474, 332, 330, 333, 333,
6476, 332, 330, 333, 333,
6478, 331, 330, 333, 333,
6481, 332, 330, 335, 332,
6483, 332, 330, 333, 332,
6486, 332, 333, 334, 333,
6489, 331, 331, 333, 333,
6491, 332, 331, 333, 333,
6493, 332, 331, 333, 333,
6496, 331, 332, 333, 332,
6498, 332, 331, 333, 333,
6500, 331, 331, 333, 333,
6503, 335, 331, 333, 333,
6505, 331, 332, 333, 333,
6507, 332, 331, 333, 334,
6510, 332, 331, 333, 333,
6512, 331, 331, 334, 333,
6514, 331, 330, 332, 333,
6517, 331, 332, 333, 333,
6519, 331, 331, 332, 334,
6521, 331, 331, 332, 333,
6524, 331, 331, 332, 332,
6526, 331, 331, 333, 333,
6529, 331, 331, 332, 331,
6532, 331, 330, 332, 333,
6534, 331, 331, 333, 333,
6536, 331, 330, 332, 333,
6538, 331, 331, 332, 333,
6541, 332, 331, 332, 334,
6543, 332, 330, 332, 333,
6545, 331, 331, 332, 332,
6548, 332, 331, 332, 332,
6550, 331, 331, 331, 333,
6552, 332, 331, 331, 333,
6555, 331, 331, 332, 332,
6557, 331, 331, 332, 333,
6559, 332, 331, 331, 332,
6562, 330, 331, 331, 332,
6564, 332, 330, 331, 333,
6566, 331, 330, 330, 334,
6569, 331, 331, 331, 333,
6572, 331, 331, 330, 334,
6574, 331, 330, 329, 333,
6577, 335, 332, 331, 332,
6579, 331, 331, 330, 333,
6581, 331, 331, 330, 333,
6584, 332, 331, 330, 334,
6586, 331, 331, 330, 334,
6588, 331, 331, 330, 333,
6591, 331, 330, 331, 333,
6593, 332, 331, 330, 332,
6595, 331, 331, 330, 334,
6598, 331, 331, 330, 333,
6600, 331, 331, 329, 333,
6602, 331, 331, 330, 333,
6605, 331, 331, 330, 334,
6607, 330, 331, 329, 334,
6609, 331, 331, 329, 334,
6612, 330, 330, 330, 333,
6615, 330, 331, 329, 333,
6617, 332, 331, 329, 334,
6620, 331, 330, 329, 333,
6622, 331, 331, 329, 333,
6624, 331, 331, 329, 333,
6626, 331, 331, 329, 333,
6629, 331, 331, 328, 334,
6631, 331, 330, 328, 334,
6633, 331, 331, 329, 332,
6636, 331, 331, 329, 332,
6638, 331, 331, 329, 332,
6640, 331, 330, 329, 333,
6643, 331, 330, 329, 333,
6645, 331, 330, 329, 333,
6647, 331, 331, 329, 332,
6650, 331, 331, 329, 333,
6652, 331, 330, 328, 333,
6654, 330, 331, 329, 332,
6658, 331, 330, 330, 331,
6660, 330, 330, 329, 332,
6662, 331, 332, 329, 332,
6665, 331, 330, 328, 332,
6667, 331, 330, 328, 332,
6669, 331, 330, 329, 331,
6672, 330, 331, 329, 330,
6674, 331, 330, 328, 331,
6676, 330, 330, 329, 332,
6679, 332, 330, 328, 331,
6681, 330, 331, 329, 331,
6683, 331, 330, 329, 332,
6686, 331, 330, 328, 331,
6688, 330, 329, 329, 331,
6690, 330, 328, 330, 331,
6693, 330, 329, 329, 332,
6695, 330, 330, 329, 330,
6697, 330, 329, 328, 331,
6701, 329, 330, 329, 330,
6703, 330, 330, 329, 328,
6705, 330, 330, 329, 325,
6708, 329, 330, 329, 325,
6710, 331, 329, 329, 326,
6712, 331, 329, 328, 328,
6714, 331, 329, 328, 329,
6717, 331, 329, 327, 330,
6719, 331, 329, 329, 330,
6721, 330, 329, 329, 330,
6724, 330, 329, 329, 331,
6726, 331, 329, 328, 332,
6728, 330, 329, 328, 332,
6731, 331, 329, 329, 334,
6733, 331, 330, 329, 331,
6735, 331, 329, 329, 331,
6738, 330, 330, 329, 333,
6740, 330, 329, 329, 332,
6743, 330, 329, 329, 332,
6746, 330, 330, 329, 332,
6748, 330, 329, 328, 331,
6750, 330, 329, 328, 332,
6753, 330, 329, 328, 332,
6755, 330, 329, 329, 332,
6757, 330, 330, 329, 332,
6760, 330, 330, 329, 332,
6762, 331, 329, 329, 332,
6764, 329, 331, 329, 330,
6767, 330, 329, 330, 329,
6769, 330, 330, 329, 329,
6771, 330, 330, 329, 332,
6774, 331, 329, 328, 331,
6776, 331, 329, 327, 331,
6778, 330, 331, 329, 331,
6781, 330, 329, 329, 332,
6784, 330, 330, 328, 332,
6786, 330, 330, 328, 332,
6789, 331, 330, 329, 332,
6791, 330, 331, 329, 332,
6793, 331, 330, 329, 331,
6796, 331, 329, 328, 332,
6798, 331, 330, 329, 332,
6800, 331, 330, 329, 332,
6802, 331, 329, 329, 332,
6805, 331, 329, 328, 332,
6807, 331, 328, 329, 332,
6809, 330, 329, 329, 331,
6812, 331, 329, 328, 332,
6814, 331, 329, 328, 330,
6816, 331, 329, 329, 332,
6819, 332, 329, 329, 332,
6821, 331, 329, 329, 332,
6823, 331, 329, 329, 331,
6827, 331, 329, 329, 332,
6829, 331, 328, 328, 332,
6831, 330, 329, 329, 331,
6834, 330, 328, 330, 329,
6836, 330, 329, 329, 331,
6838, 332, 330, 329, 330,
6841, 332, 329, 328, 329,
6843, 332, 330, 330, 329,
6845, 332, 329, 329, 329,
6848, 331, 330, 328, 329,
6850, 332, 329, 327, 331,
6852, 332, 329, 329, 332,
6855, 333, 329, 329, 331,
6857, 332, 331, 329, 331,
6859, 332, 330, 328, 332,
6862, 331, 330, 328, 332,
6864, 331, 329, 329, 332,
6866, 331, 328, 329, 332,
6870, 331, 330, 328, 333,
6872, 331, 331, 328, 333,
6874, 331, 330, 327, 333,
6877, 331, 330, 328, 332,
6879, 331, 330, 327, 333,
6881, 331, 330, 328, 333,
6884, 330, 330, 328, 333,
6886, 331, 330, 328, 333,
6888, 331, 330, 328, 332,
6890, 332, 331, 328, 333,
6893, 332, 330, 327, 333,
6895, 332, 330, 328, 332,
6897, 333, 330, 328, 332,
6900, 331, 330, 328, 332,
6902, 332, 330, 328, 332,
6904, 331, 330, 327, 331,
6907, 331, 330, 328, 334,
6909, 331, 331, 328, 331,
6912, 332, 330, 328, 332,
6915, 332, 331, 328, 333,
6917, 332, 330, 328, 332,
6919, 331, 330, 327, 332,
6922, 331, 331, 328, 331,
6924, 330, 330, 330, 332,
6926, 331, 330, 327, 333,
6929, 331, 330, 326, 333,
6931, 331, 330, 328, 333,
6933, 331, 330, 328, 332,
6936, 332, 331, 327, 334,
6938, 332, 331, 327, 334,
6940, 330, 332, 327, 333,
6943, 331, 330, 329, 332,
6945, 332, 331, 328, 333,
6947, 331, 331, 327, 334,
6950, 331, 330, 327, 333,
6952, 331, 330, 326, 333,
6955, 331, 331, 327, 333,
6958, 330, 330, 326, 333,
6960, 331, 330, 327, 334,
6962, 331, 330, 327, 333,
6965, 332, 330, 327, 334,
6967, 331, 331, 326, 333,
6969, 331, 330, 326, 334,
6972, 331, 330, 326, 334,
6974, 331, 330, 326, 334,
6976, 331, 331, 326, 334,
6978, 331, 330, 325, 334,
6981, 331, 330, 325, 334,
6983, 331, 330, 325, 334,
6985, 330, 330, 326, 333,
6988, 330, 331, 325, 333,
6990, 329, 331, 325, 332,
6992, 330, 330, 325, 333,
6995, 330, 330, 325, 333,
6998, 330, 330, 325, 334,
7000, 329, 330, 325, 332,
7003, 330, 330, 324, 330,
7005, 330, 329, 324, 328,
7007, 329, 330, 324, 328,
7010, 329, 328, 325, 329,
7012, 330, 329, 324, 332,
7014, 330, 330, 324, 333,
7017, 330, 329, 324, 333,
7019, 330, 329, 325, 333,
7021, 330, 330, 324, 334,
7024, 329, 330, 323, 334,
7026, 330, 329, 323, 334,
7028, 330, 329, 324, 335,
7031, 330, 329, 323, 335,
7033, 329, 330, 323, 334,
7035, 329, 329, 322, 335,
7038, 329, 329, 322, 335,
7041, 329, 328, 323, 335,
7043, 329, 328, 323, 335,
7046, 329, 329, 322, 335,
7048, 329, 329, 322, 335,
7050, 329, 328, 322, 335,
7053, 329, 329, 322, 334,
7055, 329, 329, 321, 335,
7057, 329, 329, 321, 336,
7059, 327, 328, 321, 334,
7062, 329, 328, 321, 334,
7064, 328, 329, 320, 334,
7066, 328, 329, 319, 334,
7069, 328, 329, 319, 334,
7071, 328, 328, 319, 333,
7073, 328, 328, 319, 333,
7076, 329, 329, 319, 334,
7078, 329, 328, 319, 334,
7080, 329, 328, 318, 335,
7084, 329, 328, 319, 337,
7086, 329, 329, 318, 334,
7088, 329, 328, 318, 334,
7091, 329, 328, 317, 335,
7093, 329, 329, 317, 334,
7095, 328, 328, 317, 334,
7098, 328, 329, 317, 334,
7100, 328, 328, 319, 334,
7102, 328, 328, 316, 334,
7105, 328, 328, 316, 334,
7107, 328, 329, 316, 334,
7109, 328, 329, 315, 334,
7112, 327, 329, 315, 334,
7114, 328, 329, 314, 334,
7116, 326, 333, 314, 334,
7119, 327, 328, 315, 333,
7121, 327, 329, 313, 334,
7123, 327, 329, 313, 335,
7127, 327, 328, 312, 334,
7129, 327, 328, 313, 334,
7131, 326, 329, 312, 334,
7134, 323, 329, 312, 334,
7136, 325, 329, 312, 334,
7138, 326, 329, 311, 334,
7141, 325, 329, 311, 334,
7143, 325, 330, 310, 334,
7145, 325, 329, 310, 334,
7147, 325, 328, 309, 334,
7150, 325, 328, 309, 334,
7152, 324, 329, 309, 333,
7154, 325, 329, 308, 333,
7157, 325, 329, 307, 332,
7159, 325, 329, 307, 332,
7161, 324, 329, 307, 332,
7164, 324, 329, 306, 331,
7166, 324, 329, 305, 333,
7169, 324, 328, 305, 333,
7172, 323, 329, 305, 332,
7174, 323, 329, 304, 332,
7176, 322, 329, 303, 332,
7179, 323, 328, 302, 333,
7181, 322, 328, 302, 332,
7183, 322, 328, 301, 332,
7186, 322, 329, 300, 332,
7188, 322, 328, 299, 333,
7190, 322, 328, 300, 333,
7193, 322, 327, 298, 333,
7195, 322, 327, 299, 332,
7197, 322, 328, 297, 332,
7200, 322, 328, 297, 333,
7202, 321, 328, 295, 332,
7204, 322, 328, 294, 332,
7207, 322, 327, 296, 332,
7209, 321, 328, 294, 331,
7212, 321, 328, 293, 332,
7215, 320, 327, 292, 332,
7217, 320, 326, 291, 331,
7219, 320, 327, 291, 331,
7222, 321, 327, 291, 331,
7224, 320, 328, 289, 332,
7226, 319, 327, 289, 331,
7229, 318, 327, 288, 328,
7231, 318, 327, 287, 329,
7233, 318, 327, 286, 330,
7235, 317, 326, 285, 329,
7238, 318, 326, 285, 330,
7240, 318, 327, 284, 330,
7242, 319, 327, 283, 331,
7245, 318, 327, 283, 331,
7247, 318, 326, 282, 331,
7249, 318, 326, 281, 331,
7252, 318, 327, 280, 330,
7255, 318, 326, 278, 332,
7257, 317, 326, 278, 331,
7260, 317, 326, 277, 334,
7262, 316, 326, 277, 331,
7264, 316, 326, 275, 331,
7267, 315, 326, 275, 332,
7269, 315, 326, 273, 331,
7271, 315, 325, 273, 330,
7274, 315, 326, 272, 330,
7276, 315, 326, 275, 330,
7278, 315, 325, 271, 330,
7281, 315, 326, 269, 331,
7283, 314, 326, 269, 330,
7285, 314, 326, 267, 330,
7288, 315, 326, 266, 330,
7290, 315, 326, 266, 330,
7292, 315, 330, 265, 329,
7296, 314, 324, 265, 329,
7298, 314, 325, 263, 330,
7300, 314, 326, 262, 330,
7303, 313, 326, 260, 330,
7305, 313, 326, 260, 329,
7307, 313, 326, 260, 328,
7310, 317, 325, 259, 329,
7312, 313, 326, 258, 329,
7314, 313, 325, 257, 328,
7317, 313, 326, 256, 328,
7319, 313, 326, 255, 327,
7321, 314, 324, 255, 328,
7323, 314, 325, 254, 329,
7326, 313, 325, 253, 329,
7328, 313, 326, 253, 328,
7330, 313, 325, 252, 329,
7333, 313, 326, 251, 329,
7335, 313, 325, 250, 329,
7337, 312, 325, 249, 329,
7341, 312, 326, 248, 328,
7343, 312, 326, 247, 330,
7345, 312, 325, 247, 329,
7348, 313, 326, 246, 328,
7350, 312, 325, 246, 328,
7352, 313, 326, 245, 328,
7355, 311, 326, 244, 329,
7357, 312, 325, 244, 328,
7359, 312, 326, 243, 328,
7362, 312, 326, 242, 327,
7364, 312, 326, 241, 329,
7366, 312, 325, 240, 328,
7369, 312, 325, 240, 328,
7371, 312, 325, 239, 328,
7373, 311, 325, 238, 328,
7376, 312, 326, 237, 328,
7378, 313, 325, 236, 328,
7380, 313, 325, 234, 328,
7384, 313, 326, 234, 328,
7386, 312, 326, 234, 326,
7388, 313, 325, 232, 328,
7391, 313, 325, 231, 328,
7393, 312, 325, 231, 327,
7395, 313, 326, 230, 328,
7398, 312, 325, 229, 328,
7400, 312, 325, 228, 328,
7402, 313, 325, 228, 328,
7405, 312, 325, 226, 326,
7407, 313, 326, 226, 327,
7409, 313, 325, 224, 329,
7411, 312, 325, 224, 327,
7414, 313, 325, 224, 327,
7416, 312, 325, 223, 327,
7418, 314, 325, 222, 328,
7421, 313, 325, 221, 328,
7424, 313, 325, 220, 328,
7426, 313, 325, 219, 327,
7429, 313, 325, 219, 327,
7431, 314, 325, 217, 327,
7433, 313, 325, 216, 328,
7436, 313, 325, 217, 328,
7438, 314, 325, 216, 327,
7440, 314, 325, 215, 328,
7443, 314, 325, 214, 329,
7445, 314, 325, 214, 328,
7447, 314, 326, 213, 328,
7450, 313, 326, 213, 326,
7452, 313, 325, 216, 327,
7454, 313, 325, 211, 327,
7457, 314, 325, 211, 327,
7459, 314, 326, 211, 327,
7461, 314, 324, 210, 327,
7464, 314, 325, 210, 327,
7467, 315, 325, 209, 328,
7469, 315, 326, 210, 327,
7472, 315, 325, 210, 328,
7474, 316, 326, 208, 328,
7476, 315, 326, 209, 328,
7479, 315, 325, 208, 328,
7481, 315, 325, 208, 328,
7483, 315, 326, 209, 327,
7486, 319, 325, 208, 328,
7488, 315, 326, 209, 328,
7490, 315, 325, 208, 327,
7493, 316, 326, 209, 328,
7495, 315, 325, 209, 328,
7497, 316, 324, 209, 328,
7499, 316, 326, 209, 328,
7502, 316, 325, 209, 328,
7504, 316, 326, 210, 327,
7506, 317, 326, 210, 328,
7510, 317, 326, 210, 328,
7512, 316, 326, 211, 328,
7514, 316, 326, 211, 328,
7517, 316, 326, 212, 327,
7519, 316, 326, 212, 329,
7521, 316, 325, 213, 328,
7524, 317, 326, 214, 328,
7526, 316, 326, 214, 329,
7528, 317, 326, 215, 326,
7531, 317, 327, 215, 328,
7533, 317, 326, 217, 328,
7535, 317, 327, 217, 328,
7538, 317, 327, 218, 332,
7540, 317, 327, 219, 328,
7542, 317, 327, 219, 328,
7545, 317, 326, 221, 328,
7547, 317, 327, 221, 328,
7549, 317, 327, 222, 328,
7553, 318, 327, 223, 328,
7555, 317, 326, 224, 328,
7557, 318, 326, 225, 327,
7560, 317, 327, 226, 328,
7562, 317, 327, 227, 326,
7564, 319, 327, 228, 328,
7567, 318, 327, 228, 327,
7569, 318, 327, 230, 328,
7571, 318, 329, 231, 327,
7574, 318, 327, 232, 328,
7576, 318, 327, 233, 328,
7578, 318, 327, 235, 328,
7581, 318, 328, 236, 327,
7583, 318, 328, 237, 328,
7585, 318, 327, 238, 329,
7587, 317, 328, 239, 327,
7590, 317, 327, 241, 328,
7592, 318, 328, 242, 327,
7595, 318, 328, 243, 327,
7598, 318, 328, 245, 328,
7600, 319, 327, 246, 328,
7602, 319, 328, 247, 328,
7605, 318, 328, 248, 327,
7607, 319, 327, 248, 328,
7609, 319, 327, 251, 327,
7612, 319, 327, 253, 328,
7614, 319, 328, 254, 327,
7616, 320, 328, 255, 328,
7619, 320, 328, 256, 329,
7621, 320, 328, 258, 328,
7623, 319, 328, 259, 328,
7626, 318, 329, 260, 327,
7628, 320, 329, 262, 328,
7630, 319, 328, 263, 329,
7633, 319, 329, 264, 328,
7635, 319, 329, 266, 328,
7638, 320, 329, 267, 328,
7641, 320, 329, 268, 328,
7643, 320, 329, 270, 328,
7645, 320, 330, 271, 327,
7648, 320, 330, 273, 329,
7650, 321, 329, 273, 329,
7652, 320, 329, 275, 329,
7655, 321, 328, 276, 329,
7657, 321, 328, 277, 329,
7659, 321, 329, 279, 328,
7662, 322, 327, 279, 329,
7664, 322, 328, 281, 328,
7666, 322, 328, 283, 328,
7668, 322, 328, 283, 329,
7671, 321, 329, 285, 327,
7673, 322, 326, 286, 329,
7675, 322, 328, 288, 328,
7678, 321, 329, 288, 328,
7681, 322, 329, 289, 328,
7683, 322, 329, 290, 329,
7686, 322, 329, 291, 328,
7688, 323, 329, 293, 328,
7690, 320, 329, 294, 330,
7693, 323, 330, 294, 329,
7695, 323, 329, 295, 330,
7697, 322, 329, 297, 329,
7700, 323, 329, 297, 328,
7702, 322, 330, 299, 329,
7704, 323, 330, 300, 327,
7707, 323, 330, 300, 329,
7709, 323, 329, 302, 328,
7711, 324, 330, 303, 328,
7714, 323, 331, 304, 333,
7716, 324, 330, 304, 329,
7718, 323, 330, 305, 329,
7721, 323, 330, 307, 328,
7724, 323, 331, 307, 328,
7726, 324, 330, 308, 329,
7729, 324, 330, 309, 329,
7731, 323, 330, 309, 329,
7733, 323, 330, 311, 329,
7736, 324, 330, 311, 328,
7738, 323, 330, 312, 328,
7740, 324, 330, 312, 329,
7743, 324, 330, 313, 329,
7745, 324, 330, 315, 328,
7747, 324, 331, 315, 328,
7750, 324, 330, 315, 329,
7752, 325, 330, 317, 329,
7754, 325, 330, 318, 329,
7756, 325, 330, 318, 329,
7759, 325, 330, 318, 329,
7761, 324, 330, 319, 329,
7763, 328, 329, 320, 328,
7767, 325, 329, 321, 329,
7769, 325, 329, 321, 328,
7771, 325, 330, 322, 330,
7774, 325, 330, 322, 329,
7776, 325, 329, 324, 328,
7778, 325, 329, 324, 328,
7781, 325, 330, 325, 328,
7783, 325, 329, 325, 329,
7785, 325, 329, 326, 329,
7788, 325, 329, 327, 329,
7790, 325, 330, 327, 329,
7792, 325, 329, 327, 329,
7795, 326, 329, 327, 329,
7797, 325, 330, 328, 329,
7799, 325, 330, 329, 328,
7802, 325, 330, 329, 328,
7804, 325, 329, 330, 329,
7806, 324, 328, 330, 329,
7810, 326, 329, 331, 328,
7812, 325, 330, 331, 328,
7814, 326, 329, 331, 328,
7817, 325, 329, 332, 329,
7819, 325, 329, 332, 329,
7821, 324, 330, 333, 330,
7824, 325, 330, 333, 329,
7826, 326, 330, 333, 329,
7828, 327, 330, 333, 328,
7831, 326, 330, 334, 329,
7833, 326, 329, 333, 328,
7835, 326, 330, 334, 329,
7838, 326, 329, 334, 329,
7840, 326, 330, 335, 329,
7842, 326, 330, 335, 329,
7844, 326, 330, 335, 329,
7847, 326, 330, 336, 328,
7849, 326, 329, 335, 329,
7852, 326, 329, 336, 329,
7855, 327, 330, 336, 329,
7857, 326, 329, 336, 329,
7859, 326, 329, 336, 329,
7862, 327, 329, 336, 329,
7864, 326, 329, 337, 329,
7866, 325, 329, 337, 329,
7869, 327, 330, 337, 330,
7871, 326, 329, 337, 330,
7873, 326, 329, 337, 329,
7876, 326, 329, 338, 329,
7878, 326, 329, 338, 329,
7880, 327, 329, 338, 328,
7883, 327, 329, 337, 329,
7885, 327, 329, 338, 329,
7887, 328, 329, 338, 328,
7890, 327, 330, 339, 330,
7892, 328, 329, 338, 329,
7895, 328, 329, 339, 329,
7898, 327, 328, 340, 329,
7900, 327, 329, 340, 328,
7902, 328, 329, 339, 329,
7905, 328, 328, 339, 329,
7907, 327, 328, 343, 329,
7909, 327, 328, 341, 328,
7912, 327, 328, 340, 328,
7914, 326, 329, 340, 330,
7916, 327, 328, 340, 329,
7919, 327, 328, 341, 328,
7921, 327, 329, 340, 328,
7923, 327, 333, 341, 329,
7926, 327, 328, 340, 329,
7928, 328, 328, 341, 328,
7930, 328, 328, 341, 328,
7932, 328, 328, 341, 329,
7936, 329, 328, 341, 329,
7938, 329, 328, 341, 329,
7940, 332, 327, 342, 328,
7943, 328, 328, 341, 329,
7945, 328, 329, 342, 328,
7947, 328, 329, 342, 330,
7950, 328, 329, 342, 329,
7952, 328, 328, 342, 329,
7954, 329, 329, 343, 328,
7957, 328, 329, 343, 328,
7959, 329, 329, 342, 329,
7961, 329, 328, 343, 329,
7964, 329, 329, 343, 329,
7966, 329, 329, 343, 328,
7968, 329, 329, 343, 328,
7971, 329, 329, 343, 329,
7973, 330, 330, 343, 329,
7975, 329, 329, 344, 329,
7979, 330, 330, 344, 328,
7981, 330, 330, 347, 328,
7983, 329, 329, 344, 329,
7986, 329, 329, 345, 328,
7988, 329, 330, 344, 328,
7990, 328, 330, 345, 328,
7993, 329, 330, 344, 329,
7995, 329, 329, 345, 329,
7997, 329, 330, 346, 329,
8000, 330, 331, 345, 329,
8002, 330, 330, 345, 330,
8004, 329, 330, 346, 329,
8007, 328, 330, 346, 329,
8009, 329, 330, 347, 329,
8011, 330, 331, 346, 329,
8014, 330, 330, 347, 329,
8016, 330, 330, 347, 329,
8018, 330, 329, 347, 329,
8020, 330, 329, 347, 329,
8024, 330, 329, 347, 328,
8026, 331, 328, 348, 329,
8028, 331, 328, 348, 329,
8031, 331, 328, 348, 329,
8033, 330, 330, 349, 328,
8035, 331, 329, 349, 329,
8038, 332, 330, 350, 329,
8040, 331, 330, 350, 329,
8042, 332, 330, 351, 329,
8045, 333, 330, 351, 330,
8047, 333, 330, 351, 328,
8049, 331, 331, 352, 329,
8052, 331, 330, 354, 329,
8054, 331, 331, 353, 328,
8056, 333, 330, 353, 330,
8059, 333, 330, 354, 330,
8061, 334, 330, 355, 329,
8064, 334, 330, 356, 329,
8067, 334, 331, 357, 334,
8069, 333, 330, 357, 330,
8071, 333, 330, 358, 329,
8074, 333, 329, 359, 329,
8076, 333, 330, 359, 329,
8078, 334, 330, 359, 330,
8081, 334, 330, 359, 329,
8083, 333, 330, 361, 328,
8085, 333, 330, 362, 329,
8088, 334, 331, 361, 328,
8090, 334, 330, 362, 330,
8092, 334, 329, 363, 329,
8095, 334, 329, 364, 328,
8097, 334, 330, 365, 329,
8099, 334, 334, 366, 328,
8102, 334, 329, 367, 329,
8104, 335, 329, 368, 329,
8107, 335, 330, 368, 328,
8109, 336, 331, 368, 329,
8112, 336, 331, 368, 329,
8114, 336, 331, 369, 329,
8116, 336, 332, 371, 328,
8119, 335, 331, 372, 329,
8121, 335, 332, 373, 329,
8123, 335, 332, 374, 330,
8126, 335, 332, 374, 329,
8128, 335, 332, 374, 329,
8130, 336, 332, 374, 328,
8133, 336, 332, 375, 327,
8135, 337, 331, 375, 329,
8137, 336, 331, 377, 328,
8140, 336, 331, 378, 329,
8142, 336, 331, 378, 327,
8144, 336, 334, 379, 328,
8147, 337, 332, 379, 327,
8150, 337, 331, 381, 328,
8152, 337, 333, 380, 328,
8155, 337, 333, 381, 329,
8157, 337, 333, 382, 328,
8159, 336, 333, 382, 328,
8162, 334, 333, 383, 327,
8164, 336, 333, 384, 328,
8166, 335, 333, 384, 328,
8169, 336, 333, 384, 330,
8171, 337, 332, 385, 328,
8173, 337, 332, 386, 327,
8176, 338, 332, 386, 328,
8178, 339, 332, 385, 329,
8180, 339, 332, 386, 328,
8183, 338, 332, 387, 327,
8185, 338, 331, 388, 327,
8187, 339, 332, 388, 328,
8190, 338, 331, 390, 327,
8193, 338, 330, 390, 327,
8195, 338, 330, 390, 327,
8197, 339, 331, 389, 327,
8200, 339, 332, 389, 327,
8202, 339, 332, 390, 328,
8204, 339, 332, 391, 327,
8207, 339, 334, 391, 326,
8209, 339, 334, 391, 326,
8211, 339, 334, 391, 328,
8214, 339, 334, 392, 327,
8216, 339, 334, 392, 327,
8218, 341, 335, 392, 327,
8221, 340, 334, 393, 328,
8223, 340, 334, 394, 328,
8225, 339, 334, 395, 327,
8228, 340, 334, 396, 327,
8230, 340, 335, 395, 328,
8232, 340, 334, 395, 328,
8236, 341, 334, 394, 327,
8238, 341, 334, 394, 327,
8240, 340, 334, 396, 326,
8243, 340, 334, 397, 327,
8245, 341, 332, 397, 327,
8247, 340, 333, 398, 327,
8250, 341, 332, 398, 327,
8252, 340, 334, 397, 326,
8254, 341, 334, 397, 327,
8257, 341, 334, 397, 327,
8259, 341, 334, 398, 326,
8261, 341, 334, 398, 326,
8264, 341, 335, 397, 327,
8266, 341, 335, 397, 326,
8268, 341, 334, 397, 327,
8271, 341, 334, 398, 326,
8273, 341, 335, 398, 326,
8275, 341, 335, 398, 328,
8278, 341, 333, 398, 327,
8281, 341, 333, 398, 327,
8283, 342, 333, 399, 327,
8285, 342, 333, 399, 327,
8288, 342, 333, 398, 327,
8290, 342, 333, 399, 328,
8292, 343, 333, 400, 328,
8295, 342, 333, 400, 328,
8297, 342, 334, 399, 329,
8299, 342, 334, 399, 329,
8302, 342, 334, 400, 329,
8304, 342, 333, 400, 328,
8306, 342, 334, 400, 329,
8309, 342, 335, 401, 328,
8311, 342, 334, 401, 330,
8313, 342, 333, 401, 329,
8316, 342, 334, 400, 330,
8318, 342, 333, 400, 329,
8321, 342, 333, 400, 329,
8324, 343, 334, 399, 330,
8326, 343, 334, 400, 329,
8328, 343, 334, 399, 329,
8331, 343, 335, 399, 330,
8333, 342, 334, 400, 330,
8335, 342, 334, 399, 330,
8338, 342, 334, 400, 329,
8340, 342, 334, 399, 329,
8342, 342, 334, 399, 330,
8345, 342, 333, 398, 332,
8347, 342, 333, 399, 329,
8349, 342, 334, 399, 329,
8352, 342, 334, 399, 329,
8354, 342, 333, 398, 330,
8356, 342, 333, 398, 329,
8359, 341, 333, 399, 328,
8361, 342, 333, 400, 328,
8364, 342, 333, 398, 330,
8366, 342, 333, 399, 329,
8369, 343, 333, 399, 329,
8371, 343, 334, 399, 328,
8373, 343, 333, 398, 329,
8376, 342, 334, 398, 330,
8378, 342, 337, 398, 328,
8380, 342, 334, 397, 328,
8383, 342, 335, 397, 328,
8385, 342, 334, 397, 327,
8387, 342, 334, 397, 329,
8390, 342, 333, 397, 328,
8392, 341, 333, 397, 328,
8394, 343, 333, 396, 327,
8397, 341, 333, 396, 329,
8399, 341, 333, 396, 328,
8401, 340, 334, 396, 328,
8404, 341, 332, 397, 328,
8407, 341, 333, 396, 328,
8409, 340, 333, 395, 329,
8412, 341, 333, 396, 328,
8414, 341, 333, 394, 327,
8416, 341, 333, 395, 327,
8419, 340, 333, 395, 327,
8421, 341, 333, 394, 328,
8423, 341, 332, 396, 327,
8426, 341, 333, 395, 327,
8428, 340, 333, 395, 326,
8430, 341, 332, 395, 327,
8433, 341, 332, 395, 327,
8435, 341, 332, 395, 326,
8437, 340, 332, 396, 326,
8440, 340, 332, 394, 327,
8442, 340, 331, 394, 328,
8444, 340, 330, 393, 327,
8448, 340, 330, 394, 326,
8450, 340, 331, 394, 326,
8452, 339, 332, 394, 326,
8454, 339, 331, 393, 326,
8457, 339, 332, 394, 327,
8459, 338, 332, 393, 326,
8461, 339, 332, 393, 327,
8464, 338, 331, 392, 327,
8466, 338, 331, 393, 327,
8468, 338, 332, 393, 327,
8471, 337, 331, 393, 327,
8473, 338, 332, 392, 327,
8475, 337, 332, 392, 327,
8478, 336, 332, 392, 327,
8480, 337, 331, 392, 327,
8482, 337, 332, 391, 326,
8485, 336, 331, 391, 326,
8487, 336, 331, 391, 327,
8489, 336, 331, 391, 327,
8493, 334, 333, 391, 327,
8495, 334, 333, 390, 326,
8497, 333, 332, 390, 327,
8500, 334, 332, 389, 327,
8502, 332, 332, 390, 327,
8504, 333, 333, 390, 327,
8507, 333, 333, 389, 328,
8509, 332, 332, 389, 328,
8511, 331, 332, 389, 327,
8514, 331, 332, 390, 327,
8516, 330, 332, 389, 326,
8518, 331, 332, 389, 326,
8521, 331, 331, 388, 331,
8523, 330, 331, 389, 327,
8525, 330, 332, 388, 326,
8528, 329, 331, 388, 328,
8530, 329, 331, 388, 328,
8532, 330, 331, 388, 328,
8536, 329, 331, 388, 327,
8538, 329, 332, 390, 329,
8540, 330, 331, 387, 328,
8542, 329, 332, 388, 327,
8545, 329, 332, 387, 327,
8547, 329, 332, 387, 327,
8549, 329, 331, 386, 328,
8552, 328, 330, 386, 329,
8554, 329, 333, 385, 327,
8556, 328, 329, 387, 327,
8559, 328, 330, 386, 327,
8561, 327, 330, 386, 326,
8563, 329, 330, 386, 328,
8566, 329, 330, 386, 327,
8568, 328, 331, 386, 327,
8570, 333, 330, 386, 327,
8573, 329, 331, 386, 328,
8576, 328, 330, 386, 328,
8578, 327, 331, 386, 328,
8581, 328, 330, 387, 327,
8583, 328, 332, 386, 328,
8585, 328, 331, 385, 328,
8588, 328, 331, 384, 328,
8590, 328, 331, 384, 328,
8592, 328, 331, 384, 327,
8595, 327, 332, 384, 328,
8597, 328, 331, 383, 328,
8599, 327, 331, 383, 328,
8602, 327, 332, 384, 327,
8604, 327, 332, 383, 327,
8606, 327, 331, 383, 329,
8609, 328, 330, 382, 328,
8611, 327, 330, 383, 328,
8613, 327, 329, 383, 328,
8616, 327, 329, 381, 328,
8619, 327, 329, 382, 329,
8621, 327, 329, 381, 328,
8624, 327, 329, 382, 328,
8626, 327, 330, 381, 327,
8628, 328, 329, 381, 328,
8630, 327, 328, 381, 328,
8633, 327, 329, 381, 329,
8635, 327, 329, 381, 328,
8637, 328, 329, 380, 329,
8640, 328, 328, 379, 329,
8642, 328, 328, 380, 329,
8644, 328, 328, 380, 329,
8647, 328, 328, 380, 329,
8649, 328, 328, 380, 330,
8651, 328, 327, 379, 330,
8654, 327, 327, 380, 329,
8656, 327, 327, 380, 329,
8658, 328, 327, 379, 328,
8662, 327, 327, 378, 330,
8664, 328, 327, 379, 329,
8666, 327, 326, 378, 329,
8669, 327, 327, 378, 329,
8671, 328, 327, 377, 329,
8673, 327, 327, 377, 329,
8676, 328, 327, 377, 329,
8678, 328, 326, 378, 329,
8680, 329, 327, 377, 329,
8683, 329, 327, 376, 330,
8685, 329, 327, 376, 329,
8687, 328, 326, 376, 329,
8690, 329, 327, 377, 329,
8692, 329, 327, 375, 329,
8694, 329, 327, 375, 331,
8697, 329, 326, 375, 334,
8699, 329, 326, 375, 330,
8701, 330, 327, 374, 330,
8705, 330, 327, 374, 330,
8707, 330, 327, 375, 330,
8709, 330, 326, 374, 330,
8712, 330, 327, 374, 331,
8714, 330, 328, 376, 331,
8716, 331, 326, 374, 331,
8718, 331, 326, 373, 331,
8721, 331, 326, 374, 331,
8723, 331, 326, 374, 330,
8725, 331, 326, 373, 330,
8728, 332, 326, 373, 332,
8730, 332, 327, 374, 331,
8732, 332, 326, 374, 331,
8735, 332, 327, 373, 330,
8737, 332, 326, 373, 330,
8739, 333, 325, 373, 331,
8742, 333, 325, 372, 331,
8744, 333, 326, 373, 330,
8747, 333, 327, 372, 330,
8750, 334, 327, 372, 332,
8752, 333, 327, 372, 331,
8754, 334, 328, 372, 331,
8757, 333, 326, 373, 331,
8759, 334, 326, 372, 331,
8761, 334, 327, 372, 332,
8764, 334, 326, 371, 331,
8766, 334, 327, 373, 331,
8768, 335, 328, 372, 330,
8771, 334, 329, 372, 332,
8773, 335, 328, 372, 332,
8775, 335, 329, 370, 331,
8778, 334, 330, 372, 331,
8780, 335, 329, 370, 331,
8782, 335, 329, 371, 332,
8785, 335, 329, 371, 331,
8787, 335, 329, 371, 331,
8790, 335, 328, 372, 331,
8793, 335, 328, 371, 332,
8795, 336, 329, 370, 332,
8797, 335, 329, 370, 331,
8800, 335, 330, 370, 331,
8802, 335, 330, 370, 331,
8804, 335, 330, 370, 331,
8806, 336, 328, 369, 332,
8809, 336, 328, 370, 332,
8811, 336, 327, 370, 331,
8813, 337, 328, 369, 331,
8816, 337, 328, 369, 331,
8818, 337, 329, 369, 332,
8820, 337, 329, 368, 332,
8823, 337, 331, 369, 331,
8825, 337, 330, 369, 333,
8827, 337, 330, 369, 333,
8830, 337, 331, 369, 332,
8833, 337, 329, 369, 334,
8835, 337, 331, 368, 333,
8838, 337, 331, 368, 332,
8840, 337, 330, 368, 333,
8842, 337, 332, 368, 333,
8845, 337, 332, 368, 333,
8847, 337, 332, 368, 332,
8849, 337, 332, 368, 333,
8852, 337, 331, 367, 333,
8854, 337, 331, 367, 333,
8856, 337, 332, 367, 332,
8859, 338, 331, 366, 334,
8861, 338, 331, 367, 333,
8863, 338, 331, 367, 333,
8866, 338, 331, 366, 332,
8868, 337, 331, 366, 333,
8870, 338, 331, 365, 332,
8873, 338, 330, 364, 334,
8876, 338, 330, 365, 333,
8878, 338, 331, 365, 334,
8881, 338, 330, 365, 333,
8883, 338, 329, 365, 334,
8885, 337, 327, 365, 333,
8887, 337, 327, 364, 334,
8890, 337, 328, 366, 335,
8892, 338, 327, 363, 334,
8894, 338, 329, 363, 333,
8897, 337, 330, 364, 333,
8899, 337, 330, 364, 333,
8901, 338, 331, 363, 333,
8904, 337, 331, 363, 335,
8906, 338, 332, 363, 334,
8908, 338, 332, 363, 333,
8911, 338, 332, 362, 333,
8913, 337, 332, 362, 333,
8915, 338, 331, 362, 333,
8919, 338, 331, 362, 333,
8921, 338, 331, 362, 333,
8923, 339, 332, 361, 333,
8926, 338, 331, 361, 334,
8928, 338, 331, 361, 334,
8930, 339, 331, 361, 333,
8933, 338, 331, 361, 334,
8935, 338, 332, 361, 333,
8937, 338, 331, 360, 334,
8940, 338, 331, 360, 334,
8942, 338, 330, 361, 334,
8944, 338, 331, 359, 333,
8947, 338, 331, 359, 334,
8949, 338, 330, 359, 334,
8951, 338, 331, 359, 333,
8954, 338, 331, 359, 334,
8956, 338, 330, 358, 334,
8958, 338, 330, 358, 335,
8962, 338, 330, 357, 334,
8964, 337, 329, 358, 334,
8966, 337, 331, 358, 334,
8969, 337, 329, 357, 334,
8971, 338, 329, 357, 334,
8973, 338, 330, 358, 334,
8975, 336, 331, 358, 337,
8978, 337, 331, 357, 334,
8980, 338, 331, 357, 334,
8982, 337, 330, 357, 333,
8985, 337, 331, 357, 334,
8987, 336, 331, 356, 333,
8989, 338, 331, 356, 333,
8992, 337, 331, 358, 333,
8994, 337, 330, 357, 333,
8996, 337, 331, 356, 332,
8999, 337, 330, 357, 332,
9001, 337, 331, 356, 334,
9004, 337, 330, 355, 333,
9007, 337, 330, 356, 333,
9009, 337, 331, 356, 333,
9011, 337, 330, 355, 334,
9014, 337, 330, 355, 333,
9016, 337, 330, 355, 333,
9018, 336, 331, 355, 333,
9021, 336, 331, 355, 333,
9023, 336, 331, 355, 333,
9025, 336, 330, 354, 333,
9028, 337, 330, 354, 333,
9030, 337, 331, 355, 333,
9032, 336, 331, 354, 333,
9035, 337, 330, 354, 334,
9037, 337, 330, 354, 333,
9039, 337, 330, 354, 333,
9042, 337, 330, 353, 332,
9044, 337, 331, 353, 334,
9047, 336, 331, 353, 334,
9050, 336, 330, 352, 334,
9052, 336, 330, 353, 333,
9054, 336, 331, 353, 333,
9057, 336, 331, 352, 333,
9059, 336, 331, 353, 333,
9061, 336, 330, 353, 333,
9063, 335, 331, 352, 333,
9066, 336, 332, 353, 333,
9068, 336, 330, 351, 334,
9070, 335, 330, 352, 333,
9073, 336, 330, 351, 333,
9075, 336, 331, 352, 333,
9077, 336, 331, 351, 332,
9080, 336, 331, 351, 334,
9082, 335, 331, 351, 333,
9084, 335, 331, 351, 332,
9088, 336, 331, 351, 332,
9090, 335, 331, 350, 334,
9092, 335, 330, 351, 333,
9095, 335, 330, 349, 333,
9097, 335, 331, 350, 332,
9099, 336, 331, 350, 332,
9102, 335, 331, 350, 333,
9104, 335, 331, 350, 333,
9106, 335, 331, 349, 333,
9109, 334, 331, 350, 332,
9111, 335, 329, 349, 333,
9113, 335, 330, 349, 333,
9116, 334, 330, 348, 333,
9118, 334, 330, 350, 332,
9120, 335, 330, 349, 332,
9123, 335, 331, 349, 333,
9125, 335, 330, 348, 333,
9127, 333, 331, 347, 333,
9131, 334, 331, 348, 332,
9133, 334, 331, 348, 332,
9135, 334, 330, 348, 333,
9138, 334, 330, 348, 332,
9140, 334, 330, 348, 332,
9142, 334, 331, 348, 332,
9145, 334, 330, 347, 333,
9147, 334, 331, 347, 333,
9149, 334, 331, 347, 333,
9151, 333, 331, 348, 336,
9154, 334, 331, 347, 333,
9156, 334, 331, 347, 334,
9158, 334, 330, 347, 332,
9161, 334, 330, 348, 332,
9163, 334, 330, 347, 332,
9165, 334, 330, 347, 331,
9168, 335, 330, 351, 333,
9170, 334, 330, 347, 332,
9172, 335, 330, 347, 332,
9176, 334, 332, 347, 332,
9178, 334, 330, 346, 333,
9180, 334, 330, 346, 332,
9183, 334, 330, 347, 332,
9185, 333, 332, 346, 332,
9187, 334, 330, 346, 333,
9190, 333, 330, 346, 333,
9192, 333, 330, 345, 331,
9194, 333, 330, 346, 332,
9197, 333, 331, 346, 332,
9199, 333, 331, 345, 332,
9201, 337, 331, 345, 332,
9204, 333, 331, 345, 332,
9206, 333, 331, 345, 332,
9208, 333, 332, 345, 332,
9211, 333, 331, 345, 333,
9213, 333, 331, 345, 332,
9216, 333, 330, 345, 332,
9219, 332, 332, 345, 333,
9221, 333, 331, 344, 333,
9223, 332, 332, 344, 331,
9226, 332, 331, 344, 333,
9228, 333, 330, 344, 332,
9230, 333, 331, 344, 332,
9233, 333, 331, 343, 333,
9235, 333, 331, 344, 333,
9237, 333, 330, 344, 333,
9239, 333, 331, 344, 333,
9242, 332, 332, 344, 332,
9244, 333, 331, 343, 333,
9246, 332, 331, 343, 333,
9249, 332, 330, 343, 333,
9251, 332, 332, 343, 332,
9253, 333, 331, 342, 333,
9256, 333, 331, 343, 333,
9259, 332, 332, 343, 333,
9261, 331, 332, 343, 332,
9264, 332, 331, 343, 332,
9266, 333, 331, 342, 334,
9268, 332, 330, 343, 333,
9271, 332, 331, 341, 334,
9273, 332, 331, 342, 333,
9275, 332, 331, 342, 332,
9278, 332, 331, 342, 333,
9280, 332, 331, 342, 333,
9282, 333, 331, 342, 332,
9285, 332, 332, 342, 332,
9287, 332, 330, 343, 333,
9289, 332, 330, 341, 333,
9292, 331, 330, 342, 333,
9294, 332, 330, 343, 332,
9296, 332, 331, 342, 333,
9299, 332, 330, 342, 333,
9302, 331, 330, 340, 333,
9304, 330, 331, 342, 332,
9307, 331, 331, 342, 332,
9309, 332, 331, 341, 331,
9311, 332, 330, 341, 332,
9314, 332, 330, 341, 332,
9316, 332, 331, 341, 333,
9318, 332, 332, 341, 332,
9321, 332, 330, 341, 333,
9323, 333, 331, 340, 333,
9325, 332, 331, 341, 333,
9327, 332, 331, 341, 334,
9330, 332, 331, 340, 333,
9332, 332, 331, 340, 334,
9334, 332, 331, 340, 333,
9337, 331, 330, 340, 333,
9339, 331, 330, 340, 332,
9341, 332, 331, 340, 332,
9345, 332, 331, 344, 334,
9347, 331, 330, 340, 333,
9349, 331, 331, 339, 333,
9352, 331, 330, 340, 332,
9354, 331, 330, 338, 334,
9356, 331, 330, 339, 332,
9359, 331, 330, 340, 332,
9361, 331, 334, 338, 332,
9363, 331, 331, 338, 334,
9366, 331, 330, 339, 333,
9368, 331, 330, 338, 333,
9370, 331, 331, 339, 333,
9373, 331, 331, 339, 333,
9375, 331, 331, 339, 334,
9377, 335, 330, 339, 333,
9380, 331, 330, 338, 332,
9382, 332, 331, 339, 333,
9384, 331, 331, 338, 332,
9388, 332, 330, 338, 333,
9390, 332, 331, 338, 334,
9392, 331, 329, 338, 333,
9395, 331, 330, 338, 333,
9397, 332, 331, 337, 333,
9399, 332, 331, 337, 333,
9402, 330, 331, 338, 333,
9404, 331, 330, 338, 333,
9406, 331, 331, 338, 332,
9409, 331, 330, 337, 333,
9411, 331, 330, 337, 332,
9413, 331, 330, 337, 332,
9415, 330, 330, 337, 333,
9418, 331, 331, 337, 332,
9420, 331, 330, 337, 333,
9422, 331, 331, 337, 332,
9425, 331, 329, 336, 332,
9427, 331, 330, 337, 332,
9430, 331, 330, 336, 333,
9433, 331, 330, 336, 333,
9435, 331, 330, 336, 332,
9437, 330, 330, 337, 332,
9440, 331, 330, 336, 332,
9442, 331, 330, 336, 333,
9444, 330, 329, 336, 332,
9447, 331, 330, 335, 333,
9449, 331, 330, 336, 332,
9451, 331, 330, 336, 330,
9454, 331, 330, 336, 332,
9456, 331, 330, 336, 332,
9458, 332, 330, 336, 331,
9461, 331, 331, 336, 331,
9463, 331, 330, 335, 332,
9465, 331, 330, 335, 333,
9468, 331, 329, 336, 331,
9470, 331, 329, 336, 331,
9473, 332, 330, 335, 332,
9476, 331, 330, 335, 332,
9478, 331, 329, 334, 332,
9480, 330, 330, 334, 331,
9483, 331, 330, 335, 331,
9485, 331, 330, 334, 331,
9487, 331, 329, 334, 332,
9490, 331, 329, 335, 332,
9492, 330, 330, 334, 333,
9494, 331, 330, 334, 332,
9496, 331, 329, 333, 332,
9499, 331, 329, 334, 332,
9501, 331, 329, 334, 332,
9503, 331, 329, 334, 333,
9506, 331, 330, 334, 332,
9508, 331, 330, 334, 331,
9510, 331, 329, 334, 332,
9513, 330, 329, 334, 332,
9516, 330, 329, 334, 331,
9518, 331, 329, 333, 333,
9521, 331, 329, 334, 333,
9523, 331, 328, 334, 332,
9525, 331, 329, 333, 331,
9528, 331, 330, 333, 331,
9530, 331, 329, 332, 332,
9532, 331, 329, 333, 332,
9535, 331, 328, 333, 331,
9537, 330, 333, 333, 331,
9539, 331, 329, 332, 332,
9542, 331, 329, 333, 332,
9544, 331, 329, 332, 331,
9546, 330, 329, 333, 331,
9549, 330, 329, 332, 332,
9551, 331, 329, 332, 333,
9553, 332, 328, 332, 332,
9556, 331, 329, 331, 331,
9559, 331, 329, 332, 330,
9561, 330, 329, 332, 331,
9564, 331, 329, 331, 332,
9566, 331, 329, 332, 332,
9568, 330, 328, 332, 331,
9571, 330, 330, 332, 332,
9573, 331, 329, 331, 332,
9575, 330, 329, 331, 332,
9578, 330, 329, 332, 331,
9580, 331, 329, 332, 331,
9582, 330, 329, 331, 331,
9584, 331, 329, 331, 332,
9587, 331, 329, 331, 331,
9589, 331, 329, 331, 331,
9591, 331, 329, 331, 332,
9594, 330, 330, 331, 333,
9596, 331, 329, 331, 332,
9598, 331, 330, 330, 331,
9602, 331, 330, 330, 331,
9604, 331, 330, 330, 331,
9606, 331, 329, 330, 330,
9609, 331, 330, 330, 332,
9611, 331, 330, 330, 331,
9613, 330, 330, 330, 331,
9616, 331, 330, 329, 332,
9618, 331, 330, 329, 332,
9620, 330, 330, 329, 331,
9623, 331, 330, 329, 331,
9625, 330, 330, 329, 330,
9627, 331, 330, 329, 330,
9630, 331, 330, 328, 331,
9632, 331, 330, 329, 331,
9634, 331, 330, 329, 331,
9637, 331, 331, 329, 331,
9639, 330, 331, 329, 331,
9641, 331, 330, 329, 331,
9645, 332, 331, 329, 331,
9647, 331, 330, 330, 331,
9649, 332, 331, 329, 332,
9652, 331, 330, 329, 331,
9654, 331, 330, 329, 331,
9656, 331, 331, 328, 331,
9659, 331, 330, 329, 330,
9661, 330, 331, 328, 332,
9663, 331, 330, 328, 331,
9666, 330, 330, 328, 331,
9668, 330, 331, 328, 330,
9670, 330, 330, 328, 331,
9672, 330, 330, 327, 331,
9675, 331, 330, 328, 330,
9677, 331, 330, 328, 331,
9679, 331, 330, 328, 331,
9682, 332, 330, 327, 332,
9684, 331, 330, 328, 331,
9687, 330, 330, 328, 331,
9690, 331, 330, 328, 331,
9692, 332, 330, 327, 331,
9694, 331, 330, 327, 333,
9697, 331, 330, 328, 331,
9699, 331, 330, 328, 331,
9701, 331, 330, 327, 331,
9704, 331, 331, 327, 331,
9706, 331, 330, 327, 332,
9708, 331, 330, 327, 331,
9711, 331, 330, 328, 331,
9713, 331, 331, 327, 331,
9715, 331, 330, 327, 332,
9718, 331, 330, 328, 332,
9720, 331, 330, 328, 331,
9722, 330, 331, 327, 331,
9725, 330, 331, 327, 331,
9728, 331, 330, 327, 332,
9730, 334, 331, 327, 331,
9733, 331, 330, 325, 330,
9735, 330, 330, 327, 330,
9737, 330, 331, 327, 328,
9740, 331, 330, 326, 330,
9742, 331, 329, 327, 330,
9744, 331, 330, 327, 330,
9747, 331, 330, 327, 332,
9749, 331, 330, 326, 331,
9751, 331, 330, 326, 331,
9754, 330, 330, 326, 331,
9756, 330, 330, 327, 331,
9758, 330, 330, 326, 332,
9760, 331, 330, 326, 331,
9763, 330, 330, 326, 331,
9765, 330, 330, 326, 331,
9767, 331, 330, 326, 331,
9771, 330, 331, 326, 331,
9773, 331, 330, 327, 331,
9775, 331, 331, 327, 331,
9778, 330, 330, 326, 330,
9780, 330, 331, 326, 330,
9782, 331, 330, 325, 331,
9785, 332, 330, 326, 331,
9787, 331, 330, 326, 330,
9789, 331, 331, 326, 330,
9792, 331, 331, 326, 331,
9794, 331, 330, 326, 331,
9796, 330, 330, 326, 330,
9799, 331, 329, 326, 330,
9801, 331, 330, 326, 330,
9803, 331, 330, 327, 331,
9806, 331, 330, 326, 331,
9808, 331, 330, 326, 331,
9810, 331, 330, 326, 331,
9814, 331, 331, 326, 332,
9816, 331, 333, 326, 332,
9818, 331, 330, 326, 331,
9821, 331, 330, 327, 331,
9823, 331, 330, 327, 330,
9825, 332, 330, 326, 332,
9828, 331, 330, 326, 331,
9830, 331, 330, 326, 331,
9832, 331, 330, 327, 331,
9835, 331, 330, 326, 331,
9837, 331, 330, 326, 332,
9839, 331, 330, 326, 331,
9842, 330, 330, 326, 331,
9844, 331, 330, 328, 330,
9846, 330, 330, 326, 330,
9848, 331, 329, 326, 331,
9851, 331, 329, 326, 331,
9853, 331, 330, 326, 331,
9856, 331, 330, 326, 331,
9859, 332, 330, 326, 331,
9861, 332, 330, 326, 331,
9863, 331, 329, 325, 331,
9866, 331, 329, 326, 331,
9868, 331, 330, 326, 331,
9870, 332, 330, 325, 332,
9873, 332, 329, 327, 331,
9875, 331, 330, 326, 330,
9877, 331, 329, 326, 330,
9880, 331, 330, 326, 329,
9882, 331, 329, 325, 331,
9884, 331, 329, 326, 329,
9887, 331, 330, 326, 330,
9889, 331, 330, 326, 330,
9891, 332, 329, 325, 332,
9894, 331, 329, 327, 332,
9896, 331, 329, 326, 331,
9899, 330, 330, 326, 331,
9902, 331, 330, 325, 331,
9904, 331, 330, 326, 332,
9906, 332, 329, 326, 331,
9909, 331, 330, 326, 330,
9911, 330, 330, 326, 330,
9913, 330, 330, 326, 330,
9916, 332, 329, 325, 332,
9918, 332, 328, 325, 331,
9920, 331, 330, 326, 331,
9923, 331, 330, 326, 331,
9925, 332, 330, 325, 332,
9927, 332, 330, 326, 331,
9930, 332, 330, 326, 331,
9932, 331, 329, 326, 331,
9934, 330, 330, 325, 331,
9936, 331, 330, 325, 332,
9939, 331, 330, 325, 331,
9942, 331, 331, 326, 331,
9944, 332, 330, 325, 332,
9947, 331, 330, 326, 333,
9949, 332, 330, 325, 332,
9951, 332, 331, 325, 331,
9954, 332, 331, 325, 331,
9956, 332, 331, 325, 330,
9958, 332, 330, 325, 335,
9961, 331, 330, 325, 332,
9963, 331, 330, 325, 331,
9965, 332, 330, 325, 331,
9968, 332, 330, 324, 332,
9970, 332, 330, 325, 332,
9972, 332, 331, 325, 332,
9975, 332, 330, 327, 333,
9977, 332, 330, 325, 331,
9979, 332, 331, 325, 332,
9982, 332, 330, 324, 333,
9985, 332, 330, 324, 332,
9987, 332, 330, 324, 332,
9990, 332, 331, 325, 333,
9992, 332, 334, 324, 333,
9994, 332, 330, 324, 333,
9997, 332, 330, 325, 332,
9999, 331, 331, 325, 333,
10001, 332, 330, 325, 332,
10004, 331, 330, 326, 333,
10006, 332, 330, 324, 332,
10008, 333, 330, 324, 333,
10011, 332, 330, 324, 333,
10013, 332, 329, 324, 333,
10016, 331, 330, 324, 333,
10018, 331, 329, 324, 334,
10020, 331, 330, 324, 332,
10023, 331, 330, 323, 333,
10025, 332, 331, 323, 334,
10029, 331, 331, 324, 333,
10031, 332, 330, 323, 334,
10034, 332, 330, 324, 333,
10036, 331, 330, 322, 333,
10038, 331, 330, 323, 333,
10041, 332, 330, 323, 333,
10043, 331, 330, 323, 334,
10046, 332, 330, 323, 334,
10048, 331, 330, 323, 334,
10050, 332, 330, 323, 335,
10053, 332, 330, 323, 334,
10055, 331, 330, 322, 334,
10058, 332, 329, 323, 334,
10060, 331, 331, 322, 335,
10062, 331, 331, 322, 334,
10065, 332, 330, 322, 335,
10067, 331, 331, 322, 335,
10071, 332, 331, 322, 336,
10073, 332, 331, 323, 335,
10075, 332, 331, 323, 335,
10078, 332, 330, 322, 336,
10080, 332, 330, 322, 336,
10083, 332, 330, 322, 336,
10085, 332, 331, 323, 336,
10087, 331, 331, 321, 336,
10090, 331, 334, 321, 336,
10092, 332, 331, 322, 336,
10095, 331, 331, 321, 336,
10097, 331, 331, 321, 335,
10100, 331, 331, 321, 336,
10102, 331, 332, 321, 336,
10104, 331, 331, 321, 336,
10107, 331, 331, 320, 336,
10109, 331, 329, 321, 335,
10113, 332, 331, 321, 335,
10115, 331, 331, 321, 334,
10117, 331, 332, 320, 334,
10120, 331, 332, 320, 334,
10122, 331, 331, 320, 334,
10125, 329, 331, 319, 335,
10127, 331, 331, 320, 336,
10129, 331, 331, 320, 335,
10132, 330, 331, 319, 335,
10134, 331, 332, 319, 336,
10137, 331, 331, 320, 335,
10139, 330, 331, 319, 335,
10141, 331, 332, 319, 336,
10144, 330, 331, 319, 336,
10146, 330, 331, 319, 335,
10149, 331, 330, 319, 336,
10151, 331, 331, 319, 336,
10153, 330, 332, 318, 336,
10157, 331, 331, 319, 336,
10159, 330, 331, 318, 335,
10162, 331, 331, 319, 336,
10164, 329, 331, 318, 336,
10167, 331, 331, 318, 336,
10169, 330, 331, 317, 335,
10171, 330, 332, 317, 338,
10174, 330, 331, 318, 335,
10176, 330, 332, 317, 336,
10179, 330, 332, 317, 336,
10181, 330, 331, 316, 335,
10183, 329, 331, 318, 335,
10186, 330, 331, 315, 334,
10188, 333, 331, 315, 335,
10191, 329, 331, 315, 335,
10193, 329, 331, 315, 335,
10195, 329, 331, 315, 335,
10199, 329, 331, 315, 336,
10201, 330, 332, 314, 335,
10204, 329, 331, 314, 335,
10206, 329, 331, 314, 335,
10208, 329, 331, 314, 335,
10211, 329, 331, 313, 335,
10213, 329, 331, 313, 335,
10216, 328, 331, 312, 335,
10218, 329, 330, 313, 334,
10220, 329, 330, 313, 334,
10223, 328, 331, 312, 335,
10225, 329, 331, 312, 334,
10228, 329, 330, 312, 334,
10230, 328, 331, 311, 334,
10233, 328, 331, 309, 334,
10235, 328, 330, 310, 334,
10237, 330, 330, 310, 333,
10241, 328, 330, 309, 332,
10243, 328, 330, 310, 332,
10246, 328, 329, 309, 333,
10248, 328, 330, 309, 333,
10250, 328, 330, 309, 334,
10253, 328, 330, 309, 333,
10255, 327, 330, 308, 334,
10258, 328, 330, 311, 333,
10260, 327, 330, 307, 333,
10262, 326, 330, 307, 334,
10265, 327, 330, 308, 334,
10267, 328, 330, 305, 334,
10270, 328, 329, 309, 333,
10272, 328, 329, 306, 334,
10274, 328, 329, 305, 334,
10277, 328, 329, 305, 333,
10279, 327, 329, 304, 333,
10283, 327, 329, 305, 334,
10285, 328, 329, 304, 333,
10287, 327, 329, 303, 333,
10290, 328, 327, 303, 333,
10292, 327, 328, 302, 332,
10295, 327, 329, 303, 333,
10297, 327, 329, 302, 333,
10300, 326, 328, 302, 333,
10302, 327, 329, 301, 332,
10304, 326, 328, 300, 332,
10307, 326, 328, 299, 333,
10309, 326, 328, 299, 332,
10312, 326, 328, 299, 331,
10314, 326, 328, 297, 333,
10316, 325, 327, 297, 332,
10319, 326, 328, 296, 332,
10321, 325, 327, 296, 331,
10324, 325, 328, 294, 331,
10327, 325, 328, 294, 332,
10329, 325, 327, 293, 331,
10332, 324, 327, 293, 332,
10334, 325, 327, 292, 331,
10337, 324, 327, 291, 329,
10339, 325, 327, 290, 330,
10341, 325, 328, 290, 330,
10344, 324, 327, 290, 330,
10346, 324, 327, 288, 331,
10349, 325, 326, 287, 330,
10351, 324, 327, 286, 331,
10353, 324, 327, 286, 331,
10356, 325, 330, 285, 330,
10358, 324, 327, 283, 330,
10361, 323, 327, 284, 329,
10363, 324, 327, 283, 329,
10366, 324, 327, 282, 330,
10369, 324, 326, 281, 330,
10371, 324, 326, 281, 330,
10374, 323, 325, 280, 330,
10376, 322, 326, 278, 330,
10379, 323, 325, 278, 330,
10381, 323, 326, 277, 330,
10383, 322, 326, 277, 329,
10386, 323, 326, 276, 329,
10388, 323, 326, 275, 329,
10391, 322, 325, 274, 330,
10393, 323, 326, 273, 329,
10395, 322, 325, 272, 330,
10398, 322, 325, 271, 330,
10400, 323, 325, 271, 329,
10403, 322, 326, 270, 330,
10405, 321, 325, 269, 329,
10407, 321, 325, 268, 329,
10411, 321, 326, 267, 329,
10413, 321, 325, 266, 327,
10416, 320, 325, 265, 328,
10418, 320, 325, 264, 327,
10420, 320, 325, 263, 329,
10423, 320, 326, 262, 330,
10425, 321, 323, 261, 327,
10428, 321, 325, 260, 329,
10430, 320, 326, 259, 329,
10432, 320, 326, 258, 329,
10435, 320, 326, 257, 328,
10437, 320, 326, 256, 334,
10440, 319, 326, 255, 329,
10442, 323, 326, 255, 329,
10445, 320, 326, 254, 328,
10447, 320, 325, 252, 329,
10449, 319, 326, 252, 329,
10452, 320, 326, 251, 329,
10455, 321, 326, 250, 328,
10458, 319, 326, 249, 328,
10460, 318, 326, 248, 329,
10462, 318, 326, 247, 329,
10465, 317, 326, 247, 329,
10467, 318, 326, 246, 329,
10470, 318, 325, 245, 329,
10472, 318, 326, 244, 328,
10474, 317, 326, 244, 329,
10477, 318, 325, 243, 328,
10479, 317, 326, 242, 329,
10482, 317, 326, 241, 328,
10484, 317, 326, 241, 328,
10486, 316, 326, 239, 328,
10489, 317, 326, 239, 327,
10491, 316, 326, 238, 328,
10494, 316, 327, 238, 329,
10497, 317, 326, 237, 328,
10499, 316, 326, 235, 328,
10502, 316, 326, 236, 327,
10504, 316, 327, 236, 327,
10507, 316, 326, 234, 328,
10509, 316, 326, 234, 327,
10512, 316, 326, 233, 328,
10514, 316, 326, 233, 328,
10516, 317, 325, 233, 326,
10519, 315, 326, 232, 328,
10521, 316, 326, 232, 327,
10524, 316, 326, 231, 327,
10526, 316, 326, 230, 328,
10528, 316, 326, 231, 328,
10531, 315, 326, 230, 328,
10533, 315, 325, 229, 327,
10536, 316, 326, 230, 327,
10539, 315, 326, 229, 328,
10541, 315, 326, 228, 327,
10544, 315, 326, 229, 328,
10546, 315, 326, 228, 328,
10549, 315, 326, 228, 327,
10551, 314, 326, 227, 328,
10553, 314, 326, 227, 328,
10556, 314, 326, 226, 327,
10558, 314, 325, 226, 328,
10561, 314, 325, 228, 328,
10563, 314, 326, 225, 327,
10565, 314, 326, 226, 328,
10568, 314, 326, 226, 327,
10570, 314, 326, 227, 327,
10573, 314, 325, 226, 328,
10575, 313, 326, 226, 328,
10578, 314, 325, 225, 328,
10580, 314, 325, 225, 327,
10583, 313, 325, 225, 327,
10586, 314, 326, 226, 328,
10588, 314, 326, 226, 327,
10591, 314, 326, 225, 328,
10593, 314, 325, 226, 328,
10595, 314, 325, 226, 327,
10598, 314, 324, 226, 327,
10600, 313, 325, 225, 328,
10603, 314, 325, 226, 328,
10605, 314, 324, 226, 328,
10607, 313, 325, 227, 327,
10610, 314, 327, 227, 328,
10612, 314, 326, 227, 328,
10615, 314, 326, 226, 328,
10617, 314, 326, 228, 328,
10619, 314, 326, 228, 327,
10622, 314, 330, 228, 329,
10625, 314, 326, 228, 328,
10628, 314, 326, 228, 328,
10630, 314, 327, 229, 328,
10632, 314, 326, 229, 328,
10635, 314, 326, 229, 328,
10637, 315, 327, 231, 328,
10640, 314, 327, 231, 328,
10642, 314, 326, 231, 328,
10645, 314, 326, 232, 328,
10647, 314, 327, 232, 328,
10649, 314, 327, 233, 328,
10652, 315, 326, 234, 328,
10654, 314, 327, 234, 328,
10657, 315, 326, 236, 328,
10659, 314, 327, 236, 328,
10661, 314, 327, 236, 328,
10664, 315, 326, 237, 328,
10667, 314, 327, 238, 328,
10670, 315, 326, 239, 327,
10672, 316, 327, 239, 328,
10674, 315, 327, 239, 328,
10677, 316, 327, 241, 328,
10679, 315, 327, 241, 327,
10682, 315, 327, 242, 328,
10684, 315, 327, 243, 327,
10686, 317, 327, 244, 328,
10689, 316, 327, 245, 327,
10691, 316, 327, 246, 332,
10694, 316, 327, 246, 327,
10696, 315, 328, 246, 328,
10698, 315, 328, 249, 327,
10701, 315, 328, 249, 328,
10703, 316, 328, 250, 327,
10706, 315, 328, 251, 328,
10708, 318, 328, 252, 327,
10712, 316, 328, 253, 327,
10714, 315, 327, 254, 327,
10716, 316, 328, 255, 327,
10719, 316, 329, 256, 328,
10721, 317, 328, 257, 328,
10724, 317, 328, 258, 327,
10726, 317, 328, 259, 327,
10728, 317, 329, 260, 327,
10731, 316, 329, 260, 327,
10733, 317, 328, 262, 326,
10736, 317, 329, 262, 327,
10738, 318, 329, 264, 328,
10740, 318, 326, 265, 327,
10743, 318, 329, 266, 327,
10745, 318, 329, 267, 327,
10748, 318, 329, 268, 327,
10750, 318, 329, 269, 328,
10753, 318, 329, 270, 327,
10756, 317, 329, 271, 327,
10758, 318, 329, 272, 327,
10761, 319, 329, 273, 327,
10763, 318, 329, 273, 327,
10765, 317, 329, 273, 327,
10768, 319, 330, 276, 327,
10770, 318, 329, 277, 327,
10773, 319, 329, 277, 327,
10775, 318, 330, 278, 327,
10778, 318, 329, 279, 327,
10780, 319, 329, 280, 327,
10782, 319, 329, 280, 327,
10785, 319, 329, 283, 327,
10787, 318, 330, 284, 327,
10790, 318, 330, 284, 326,
10792, 319, 329, 285, 327,
10795, 319, 331, 285, 326,
10798, 320, 330, 286, 327,
10800, 320, 330, 288, 327,
10803, 319, 330, 288, 327,
10805, 320, 329, 289, 326,
10807, 319, 330, 290, 326,
10810, 320, 330, 291, 327,
10812, 320, 330, 292, 327,
10815, 319, 330, 292, 327,
10817, 320, 330, 293, 326,
10819, 320, 330, 294, 327,
10822, 319, 330, 294, 328,
10824, 320, 330, 295, 327,
10827, 318, 330, 296, 327,
10829, 320, 330, 297, 328,
10831, 320, 331, 297, 326,
10834, 320, 330, 298, 327,
10836, 320, 331, 299, 328,
10840, 321, 330, 300, 328,
10842, 320, 330, 300, 327,
10845, 320, 330, 301, 328,
10847, 320, 330, 302, 327,
10849, 320, 331, 302, 328,
10852, 321, 329, 303, 327,
10854, 321, 331, 304, 326,
10857, 321, 331, 305, 327,
10859, 321, 330, 305, 327,
10861, 321, 331, 306, 328,
10864, 321, 330, 306, 327,
10866, 320, 331, 307, 328,
10869, 321, 331, 308, 326,
10871, 321, 331, 307, 328,
10873, 320, 331, 308, 328,
10876, 321, 330, 309, 328,
10878, 321, 330, 310, 327,
10882, 321, 330, 310, 328,
10884, 321, 330, 311, 327,
10886, 321, 330, 311, 328,
10889, 322, 332, 312, 328,
10891, 320, 330, 312, 328,
10894, 321, 329, 313, 328,
10896, 321, 330, 314, 328,
10898, 321, 330, 314, 328,
10901, 322, 330, 314, 328,
10903, 322, 330, 315, 328,
10906, 321, 330, 315, 328,
10908, 322, 330, 316, 327,
10911, 321, 330, 317, 327,
10913, 322, 330, 316, 328,
10915, 322, 330, 317, 327,
10918, 322, 330, 317, 328,
10920, 323, 329, 318, 327,
10924, 323, 330, 318, 327,
10926, 323, 330, 319, 328,
10928, 323, 331, 319, 328,
10931, 323, 330, 319, 328,
10933, 324, 330, 319, 326,
10936, 322, 330, 319, 328,
10938, 322, 330, 320, 328,
10940, 323, 329, 320, 327,
10943, 324, 330, 321, 328,
10945, 323, 330, 321, 327,
10948, 324, 330, 321, 328,
10950, 322, 330, 321, 328,
10952, 323, 331, 321, 328,
10955, 322, 330, 321, 328,
10957, 323, 330, 322, 331,
10960, 323, 330, 322, 328,
10962, 322, 330, 322, 328,
10964, 322, 330, 322, 328,
10968, 323, 330, 323, 328,
10970, 322, 330, 323, 328,
10973, 324, 330, 323, 328,
10975, 328, 331, 323, 328,
