starting
0, 323, 324, 324, 325,
1, 322, 324, 323, 325,
2, 322, 324, 324, 326,
4, 323, 325, 325, 326,
5, 323, 325, 325, 325,
7, 322, 325, 325, 327,
8, 323, 325, 325, 326,
10, 323, 325, 324, 326,
12, 322, 324, 325, 326,
14, 323, 324, 325, 326,
16, 323, 326, 325, 326,
19, 323, 325, 324, 326,
21, 323, 325, 326, 326,
23, 322, 325, 325, 326,
25, 324, 326, 325, 324,
27, 322, 325, 325, 326,
29, 323, 324, 325, 326,
32, 323, 325, 326, 325,
34, 323, 325, 325, 325,
36, 323, 325, 326, 325,
38, 323, 325, 325, 326,
40, 323, 326, 326, 325,
43, 323, 325, 326, 326,
46, 323, 324, 325, 326,
48, 324, 325, 325, 326,
50, 323, 325, 325, 326,
52, 323, 329, 326, 326,
54, 323, 325, 326, 326,
56, 326, 325, 325, 326,
58, 323, 325, 326, 326,
61, 324, 325, 326, 326,
63, 324, 325, 326, 326,
65, 323, 326, 326, 326,
67, 324, 326, 326, 326,
69, 323, 325, 326, 326,
71, 324, 324, 326, 328,
74, 323, 326, 326, 326,
76, 323, 326, 326, 327,
78, 324, 324, 326, 324,
80, 323, 326, 326, 326,
82, 324, 326, 326, 326,
84, 324, 325, 326, 327,
88, 324, 325, 326, 325,
90, 324, 325, 326, 326,
92, 323, 325, 326, 326,
94, 323, 324, 326, 326,
96, 323, 325, 326, 326,
98, 323, 325, 325, 326,
100, 324, 325, 326, 326,
103, 324, 325, 327, 326,
105, 323, 328, 326, 326,
107, 323, 325, 326, 326,
109, 323, 326, 326, 326,
112, 324, 324, 326, 326,
114, 324, 325, 326, 326,
116, 324, 324, 326, 325,
118, 323, 325, 327, 326,
121, 323, 326, 328, 326,
123, 323, 326, 326, 326,
125, 324, 325, 327, 326,
128, 323, 325, 327, 326,
131, 324, 325, 326, 325,
133, 323, 325, 326, 325,
135, 323, 325, 326, 325,
137, 323, 324, 326, 325,
140, 323, 325, 326, 325,
142, 322, 325, 327, 326,
144, 323, 325, 326, 326,
146, 323, 325, 326, 326,
149, 323, 325, 326, 325,
151, 323, 325, 326, 326,
153, 323, 325, 326, 326,
155, 323, 325, 326, 326,
158, 322, 326, 326, 326,
160, 323, 326, 325, 325,
162, 323, 326, 326, 326,
164, 323, 325, 326, 325,
166, 323, 325, 326, 326,
169, 323, 326, 325, 325,
172, 323, 326, 326, 325,
174, 323, 326, 326, 325,
176, 323, 325, 325, 325,
179, 324, 325, 326, 325,
181, 323, 325, 325, 325,
183, 323, 326, 325, 325,
185, 323, 326, 325, 325,
188, 323, 325, 325, 325,
190, 323, 326, 326, 325,
192, 323, 326, 326, 324,
194, 323, 326, 326, 329,
197, 323, 326, 325, 325,
199, 323, 325, 325, 326,
201, 323, 326, 326, 325,
203, 323, 326, 325, 325,
206, 323, 326, 325, 325,
208, 324, 325, 325, 325,
210, 323, 326, 325, 325,
212, 323, 326, 325, 325,
216, 323, 326, 326, 325,
218, 323, 325, 325, 326,
220, 323, 326, 325, 325,
222, 323, 326, 325, 325,
225, 323, 326, 325, 325,
227, 323, 326, 325, 325,
229, 324, 326, 325, 325,
231, 323, 326, 325, 325,
233, 322, 326, 325, 325,
236, 323, 326, 325, 325,
238, 324, 325, 325, 325,
240, 323, 325, 325, 325,
242, 323, 325, 325, 325,
245, 323, 325, 326, 325,
247, 323, 325, 326, 324,
249, 324, 325, 326, 325,
251, 323, 325, 326, 329,
254, 324, 325, 326, 325,
257, 323, 325, 325, 325,
259, 323, 325, 325, 325,
261, 323, 325, 325, 325,
264, 323, 325, 325, 325,
266, 324, 325, 325, 325,
268, 324, 325, 325, 324,
270, 323, 325, 325, 325,
273, 323, 325, 324, 325,
275, 323, 325, 325, 325,
277, 323, 325, 325, 325,
279, 323, 326, 325, 325,
282, 323, 326, 324, 326,
284, 322, 326, 325, 325,
286, 322, 326, 325, 325,
288, 323, 326, 325, 325,
291, 323, 326, 325, 326,
293, 323, 326, 325, 325,
295, 322, 326, 325, 326,
297, 322, 326, 325, 325,
300, 322, 326, 325, 325,
303, 322, 326, 325, 325,
305, 323, 326, 325, 325,
307, 322, 326, 326, 324,
309, 322, 326, 325, 325,
312, 323, 326, 325, 325,
314, 323, 325, 325, 325,
316, 323, 325, 325, 325,
318, 323, 325, 325, 325,
321, 322, 326, 325, 326,
323, 323, 326, 325, 325,
325, 323, 326, 325, 325,
327, 323, 325, 325, 325,
330, 323, 326, 327, 326,
332, 322, 326, 325, 325,
334, 322, 325, 325, 325,
336, 322, 326, 325, 325,
339, 323, 325, 325, 325,
342, 323, 325, 326, 325,
344, 324, 325, 326, 326,
346, 323, 325, 325, 325,
349, 322, 326, 325, 325,
351, 323, 325, 325, 325,
353, 323, 326, 326, 326,
355, 327, 325, 326, 326,
357, 323, 325, 326, 325,
360, 323, 326, 325, 326,
362, 323, 325, 326, 325,
364, 324, 326, 326, 326,
366, 323, 325, 326, 326,
369, 324, 325, 326, 326,
371, 323, 328, 326, 326,
373, 323, 325, 326, 325,
375, 324, 325, 326, 325,
378, 323, 325, 325, 325,
380, 324, 324, 325, 325,
382, 324, 325, 325, 325,
385, 324, 325, 326, 325,
388, 323, 325, 329, 325,
390, 324, 325, 326, 326,
392, 324, 325, 326, 326,
394, 324, 325, 326, 326,
397, 324, 325, 326, 326,
399, 323, 325, 326, 325,
401, 324, 325, 326, 325,
403, 323, 325, 326, 327,
406, 324, 325, 326, 325,
408, 323, 325, 326, 326,
410, 324, 325, 326, 326,
412, 324, 325, 326, 326,
415, 324, 326, 326, 326,
417, 324, 325, 326, 326,
419, 323, 325, 326, 326,
421, 324, 325, 326, 326,
423, 323, 325, 326, 325,
427, 323, 325, 326, 326,
429, 324, 325, 326, 326,
431, 324, 325, 326, 326,
433, 323, 325, 326, 325,
436, 323, 325, 326, 326,
438, 323, 325, 326, 325,
440, 324, 325, 326, 326,
442, 323, 324, 326, 326,
445, 324, 325, 326, 326,
447, 323, 325, 326, 326,
449, 322, 325, 326, 326,
451, 323, 324, 326, 325,
454, 323, 324, 326, 324,
456, 324, 324, 326, 326,
458, 323, 325, 326, 325,
460, 324, 325, 326, 328,
463, 323, 325, 326, 325,
465, 323, 325, 327, 325,
467, 324, 325, 326, 325,
470, 323, 325, 326, 326,
473, 323, 325, 326, 325,
475, 323, 325, 326, 325,
477, 324, 325, 326, 325,
479, 324, 325, 326, 325,
482, 323, 324, 326, 325,
484, 323, 325, 326, 325,
486, 323, 325, 326, 325,
488, 323, 325, 326, 325,
490, 323, 325, 326, 325,
493, 324, 324, 326, 325,
495, 324, 324, 326, 325,
497, 324, 324, 326, 325,
499, 323, 325, 326, 325,
502, 324, 325, 326, 325,
504, 324, 324, 326, 325,
506, 324, 324, 326, 326,
508, 324, 325, 326, 326,
512, 324, 324, 326, 325,
514, 324, 325, 327, 325,
516, 324, 324, 327, 326,
518, 324, 324, 326, 326,
521, 324, 324, 326, 326,
523, 324, 324, 326, 325,
525, 323, 324, 326, 325,
527, 324, 324, 326, 326,
530, 325, 324, 326, 325,
532, 324, 325, 326, 325,
534, 324, 324, 326, 325,
536, 324, 324, 326, 325,
539, 324, 325, 324, 325,
541, 324, 324, 325, 325,
543, 324, 324, 325, 326,
545, 324, 324, 326, 325,
548, 324, 324, 326, 325,
550, 324, 325, 325, 325,
552, 324, 324, 325, 326,
555, 324, 324, 325, 324,
557, 324, 324, 325, 326,
560, 324, 325, 325, 325,
562, 324, 325, 326, 326,
564, 327, 325, 325, 325,
566, 324, 325, 325, 326,
569, 324, 325, 326, 326,
571, 325, 325, 325, 326,
573, 324, 325, 325, 326,
575, 324, 325, 325, 325,
578, 324, 326, 325, 325,
580, 324, 329, 325, 326,
582, 324, 325, 325, 326,
584, 324, 325, 325, 326,
587, 324, 325, 325, 326,
589, 324, 325, 325, 326,
591, 324, 325, 325, 326,
593, 324, 325, 325, 327,
596, 324, 325, 325, 326,
599, 323, 325, 324, 325,
601, 324, 325, 324, 326,
603, 324, 325, 325, 326,
606, 324, 326, 325, 326,
608, 325, 325, 325, 326,
610, 323, 325, 325, 326,
612, 324, 326, 325, 325,
615, 324, 326, 324, 326,
617, 324, 325, 325, 326,
619, 325, 325, 326, 326,
621, 325, 325, 325, 326,
623, 324, 326, 325, 326,
626, 324, 326, 325, 326,
628, 324, 326, 325, 326,
630, 324, 326, 325, 326,
632, 325, 326, 325, 326,
635, 324, 326, 325, 327,
637, 324, 326, 325, 326,
640, 324, 326, 325, 326,
642, 324, 326, 325, 327,
645, 325, 325, 325, 327,
647, 324, 326, 325, 326,
649, 324, 326, 325, 326,
651, 324, 326, 326, 326,
654, 324, 326, 329, 326,
656, 325, 325, 325, 327,
658, 324, 326, 325, 326,
660, 325, 326, 325, 326,
663, 325, 326, 326, 327,
665, 324, 326, 326, 326,
667, 325, 325, 326, 327,
669, 325, 325, 325, 329,
672, 325, 326, 326, 326,
674, 325, 326, 326, 326,
676, 325, 326, 326, 327,
678, 325, 326, 326, 326,
681, 325, 326, 325, 327,
684, 325, 326, 326, 326,
686, 325, 326, 326, 327,
688, 324, 326, 326, 326,
690, 325, 326, 326, 327,
693, 325, 326, 326, 327,
695, 326, 326, 326, 327,
697, 325, 326, 326, 327,
699, 325, 326, 326, 325,
702, 325, 326, 325, 327,
704, 325, 326, 326, 327,
706, 325, 326, 326, 327,
708, 325, 326, 326, 327,
711, 325, 326, 326, 327,
713, 325, 326, 326, 326,
715, 324, 326, 326, 327,
717, 325, 326, 326, 327,
720, 325, 326, 326, 327,
722, 326, 326, 326, 326,
724, 325, 325, 326, 326,
727, 325, 326, 327, 327,
730, 325, 326, 326, 327,
732, 325, 324, 326, 326,
734, 326, 326, 327, 326,
736, 325, 326, 326, 327,
739, 325, 326, 326, 326,
741, 325, 326, 326, 326,
743, 325, 326, 326, 327,
745, 325, 326, 326, 326,
748, 325, 326, 325, 326,
750, 325, 325, 326, 326,
752, 325, 325, 326, 326,
754, 325, 325, 326, 326,
756, 325, 326, 326, 326,
759, 325, 326, 326, 326,
761, 325, 325, 326, 326,
763, 324, 326, 326, 326,
765, 324, 326, 326, 326,
769, 325, 326, 325, 326,
771, 325, 325, 327, 326,
773, 324, 325, 326, 326,
775, 325, 325, 326, 326,
778, 324, 326, 326, 326,
780, 325, 326, 326, 326,
782, 325, 326, 326, 326,
784, 325, 326, 326, 326,
787, 325, 326, 326, 326,
789, 324, 325, 326, 326,
791, 324, 326, 326, 326,
793, 325, 325, 326, 327,
796, 325, 325, 326, 326,
798, 324, 326, 326, 326,
800, 324, 326, 326, 326,
802, 324, 326, 326, 326,
805, 325, 326, 325, 326,
807, 325, 325, 326, 326,
809, 325, 326, 326, 326,
812, 324, 326, 326, 326,
814, 324, 325, 326, 324,
817, 324, 326, 326, 326,
819, 325, 325, 326, 325,
821, 325, 325, 327, 324,
823, 325, 325, 326, 326,
826, 324, 325, 326, 326,
828, 325, 325, 326, 326,
830, 327, 325, 326, 326,
832, 324, 326, 326, 326,
835, 325, 326, 326, 326,
837, 324, 326, 326, 326,
839, 324, 325, 326, 325,
841, 324, 326, 327, 326,
844, 325, 325, 326, 326,
846, 325, 327, 327, 326,
848, 325, 325, 326, 325,
850, 324, 325, 326, 325,
854, 324, 326, 327, 326,
856, 324, 326, 326, 326,
858, 325, 326, 326, 325,
860, 325, 325, 326, 325,
863, 324, 326, 328, 325,
865, 324, 325, 326, 325,
867, 324, 326, 326, 326,
869, 325, 326, 326, 325,
872, 324, 326, 326, 325,
874, 325, 326, 327, 324,
876, 324, 325, 325, 325,
878, 324, 326, 326, 328,
880, 324, 326, 326, 325,
883, 325, 326, 326, 325,
885, 325, 325, 326, 326,
887, 324, 326, 326, 326,
889, 324, 326, 327, 326,
892, 325, 325, 325, 326,
894, 325, 326, 326, 325,
897, 326, 326, 327, 325,
899, 325, 326, 326, 326,
902, 325, 326, 327, 325,
904, 325, 327, 325, 325,
906, 325, 326, 326, 326,
908, 324, 326, 326, 326,
911, 325, 326, 326, 326,
913, 325, 326, 326, 325,
915, 325, 325, 326, 326,
917, 324, 326, 326, 326,
920, 325, 325, 328, 325,
922, 325, 326, 326, 325,
924, 324, 326, 326, 326,
926, 324, 326, 326, 326,
929, 325, 326, 326, 326,
931, 325, 326, 326, 326,
933, 325, 325, 327, 325,
935, 326, 326, 326, 327,
939, 325, 326, 326, 326,
941, 325, 326, 326, 326,
943, 325, 326, 326, 325,
945, 325, 327, 326, 326,
947, 325, 326, 326, 326,
950, 325, 326, 326, 326,
952, 325, 326, 326, 326,
954, 325, 326, 326, 326,
956, 325, 326, 326, 326,
959, 325, 326, 326, 326,
961, 325, 326, 326, 326,
963, 324, 326, 326, 326,
965, 324, 326, 326, 326,
968, 325, 326, 326, 326,
970, 325, 325, 326, 326,
972, 325, 326, 327, 326,
974, 325, 326, 326, 326,
977, 324, 326, 326, 326,
979, 325, 326, 326, 326,
982, 324, 326, 326, 325,
984, 325, 326, 326, 326,
987, 325, 326, 326, 326,
989, 325, 325, 326, 325,
991, 324, 325, 326, 326,
993, 324, 326, 326, 326,
996, 325, 326, 326, 326,
998, 325, 325, 326, 326,
1000, 325, 325, 327, 327,
1002, 324, 325, 326, 328,
1005, 324, 326, 326, 326,
1007, 324, 326, 326, 326,
1009, 324, 325, 325, 327,
1012, 325, 326, 326, 327,
1014, 324, 326, 326, 327,
1016, 325, 326, 326, 326,
1019, 324, 325, 326, 327,
1021, 325, 325, 326, 327,
1024, 324, 326, 326, 326,
1027, 324, 326, 327, 326,
1029, 323, 326, 326, 326,
1031, 324, 326, 326, 327,
1034, 324, 325, 326, 326,
1036, 324, 325, 327, 326,
1038, 324, 326, 326, 324,
1041, 324, 326, 326, 326,
1043, 324, 326, 326, 327,
1045, 324, 326, 326, 326,
1048, 324, 326, 326, 326,
1050, 324, 327, 326, 326,
1052, 324, 325, 326, 327,
1054, 324, 325, 324, 326,
1057, 324, 325, 326, 326,
1059, 326, 326, 326, 326,
1061, 324, 326, 326, 327,
1064, 324, 326, 326, 328,
1067, 324, 325, 326, 326,
1069, 324, 326, 326, 326,
1072, 324, 325, 326, 327,
1074, 324, 325, 326, 325,
1076, 325, 326, 326, 326,
1079, 325, 325, 326, 326,
1081, 324, 326, 326, 326,
1083, 325, 326, 326, 326,
1086, 325, 326, 326, 327,
1088, 323, 325, 326, 326,
1090, 324, 326, 326, 326,
1093, 324, 325, 327, 326,
1095, 325, 325, 326, 327,
1097, 324, 326, 326, 327,
1100, 325, 326, 327, 326,
1102, 325, 325, 327, 326,
1104, 325, 325, 326, 326,
1107, 325, 326, 326, 327,
1110, 324, 325, 326, 326,
1112, 325, 325, 325, 330,
1115, 324, 326, 326, 326,
1117, 324, 326, 326, 326,
1119, 325, 325, 326, 327,
1122, 325, 325, 326, 326,
1124, 324, 325, 326, 326,
1126, 324, 327, 326, 326,
1129, 325, 326, 328, 326,
1131, 325, 325, 326, 327,
1133, 324, 325, 326, 326,
1136, 323, 325, 326, 326,
1138, 324, 325, 326, 327,
1140, 324, 325, 326, 328,
1142, 324, 325, 326, 326,
1145, 324, 330, 326, 326,
1147, 324, 325, 326, 326,
1149, 324, 326, 326, 326,
1153, 324, 325, 326, 326,
1155, 324, 325, 326, 326,
1157, 325, 325, 326, 326,
1160, 324, 326, 326, 325,
1162, 326, 326, 326, 326,
1164, 325, 325, 326, 326,
1167, 324, 325, 326, 326,
1169, 324, 325, 326, 326,
1171, 324, 325, 326, 327,
1174, 325, 325, 326, 326,
1176, 324, 326, 326, 326,
1178, 324, 326, 326, 326,
1181, 324, 326, 326, 326,
1183, 325, 326, 326, 327,
1185, 324, 325, 327, 326,
1188, 325, 325, 326, 326,
1190, 324, 326, 326, 327,
1192, 325, 326, 326, 326,
1196, 325, 325, 326, 327,
1198, 325, 325, 326, 327,
1200, 324, 324, 326, 326,
1203, 324, 326, 327, 326,
1205, 325, 325, 326, 327,
1207, 324, 325, 326, 326,
1210, 324, 325, 326, 326,
1212, 324, 325, 327, 326,
1214, 325, 325, 326, 326,
1217, 324, 325, 326, 326,
1219, 324, 326, 326, 326,
1221, 324, 325, 326, 326,
1224, 324, 325, 326, 326,
1226, 324, 326, 326, 324,
1228, 324, 325, 327, 326,
1230, 324, 325, 326, 326,
1233, 324, 326, 326, 326,
1235, 325, 325, 326, 326,
1238, 324, 325, 326, 326,
1241, 324, 325, 326, 326,
1243, 324, 326, 326, 326,
1245, 325, 326, 326, 325,
1248, 325, 325, 326, 326,
1250, 325, 325, 326, 327,
1252, 324, 326, 326, 326,
1255, 324, 326, 327, 326,
1257, 325, 325, 326, 325,
1259, 324, 326, 326, 329,
1262, 324, 325, 326, 326,
1264, 323, 326, 326, 326,
1266, 325, 326, 326, 326,
1269, 324, 326, 326, 326,
1271, 324, 326, 326, 327,
1273, 324, 325, 326, 326,
1276, 324, 325, 326, 327,
1278, 324, 327, 326, 326,
1281, 324, 326, 326, 327,
1284, 324, 326, 326, 326,
1286, 325, 325, 326, 325,
1288, 324, 325, 327, 328,
1291, 325, 326, 326, 326,
1293, 325, 326, 327, 327,
1295, 324, 326, 326, 326,
1298, 324, 325, 327, 326,
1300, 324, 326, 326, 325,
1302, 324, 326, 326, 324,
1305, 324, 325, 326, 326,
1307, 325, 325, 326, 326,
1309, 325, 326, 326, 325,
1312, 325, 325, 326, 326,
1314, 325, 325, 326, 326,
1316, 325, 324, 326, 326,
1318, 324, 325, 326, 325,
1321, 324, 329, 326, 325,
1324, 325, 325, 326, 326,
1326, 324, 325, 326, 325,
1329, 324, 325, 326, 325,
1331, 324, 326, 326, 325,
1333, 325, 325, 325, 324,
1336, 324, 326, 325, 325,
1338, 327, 326, 325, 325,
1340, 324, 325, 325, 325,
1343, 324, 326, 326, 324,
1345, 324, 326, 325, 324,
1347, 324, 326, 325, 326,
1350, 324, 326, 325, 325,
1352, 324, 325, 325, 325,
1354, 324, 325, 325, 324,
1357, 325, 326, 325, 326,
1359, 325, 326, 325, 326,
1361, 324, 326, 325, 325,
1364, 324, 325, 326, 325,
1367, 324, 326, 325, 325,
1369, 325, 325, 325, 327,
1372, 324, 325, 324, 325,
1374, 325, 325, 324, 325,
1376, 324, 326, 325, 325,
1379, 324, 326, 326, 325,
1381, 324, 326, 325, 326,
1383, 324, 326, 325, 325,
1386, 324, 326, 325, 325,
1388, 324, 325, 325, 325,
1390, 324, 326, 325, 326,
1393, 324, 325, 324, 325,
1395, 324, 326, 325, 325,
1397, 324, 324, 326, 325,
1400, 324, 326, 325, 326,
1402, 325, 325, 324, 326,
1404, 324, 326, 325, 326,
1406, 324, 326, 325, 325,
1410, 323, 326, 325, 325,
1412, 325, 325, 324, 326,
1414, 324, 325, 325, 326,
1417, 324, 325, 325, 326,
1419, 324, 325, 324, 325,
1421, 325, 325, 324, 326,
1424, 324, 325, 324, 326,
1426, 325, 325, 324, 326,
1428, 324, 325, 325, 325,
1431, 324, 326, 325, 325,
1433, 324, 325, 324, 326,
1435, 324, 325, 324, 325,
1438, 324, 325, 325, 325,
1440, 324, 325, 324, 326,
1442, 324, 325, 324, 325,
1445, 325, 325, 325, 327,
1447, 324, 325, 324, 326,
1449, 324, 325, 325, 325,
1453, 324, 326, 325, 325,
1455, 324, 325, 325, 325,
1457, 324, 325, 325, 326,
1460, 325, 325, 325, 325,
1462, 324, 325, 325, 325,
1464, 324, 326, 325, 327,
1467, 324, 325, 325, 326,
1469, 324, 325, 325, 326,
1471, 324, 325, 326, 326,
1474, 324, 324, 326, 325,
1476, 324, 326, 325, 326,
1478, 324, 325, 325, 327,
1481, 324, 325, 326, 326,
1483, 324, 325, 326, 326,
1485, 324, 325, 325, 327,
1488, 324, 325, 325, 326,
1490, 324, 325, 325, 326,
1492, 324, 324, 326, 325,
1495, 324, 325, 326, 326,
1498, 324, 325, 326, 326,
1500, 324, 324, 325, 326,
1502, 324, 324, 326, 326,
1505, 324, 324, 326, 326,
1507, 324, 325, 326, 326,
1509, 324, 324, 325, 326,
1512, 324, 325, 326, 327,
1514, 326, 325, 326, 326,
1516, 323, 325, 326, 326,
1519, 323, 325, 326, 326,
1521, 324, 325, 326, 328,
1523, 324, 324, 326, 326,
1526, 324, 324, 326, 326,
1528, 324, 325, 326, 326,
1530, 324, 325, 326, 325,
1533, 324, 325, 326, 327,
1536, 324, 325, 326, 326,
1538, 325, 325, 326, 326,
1541, 324, 326, 326, 326,
1543, 324, 325, 326, 327,
1545, 324, 324, 326, 326,
1548, 324, 324, 327, 326,
1550, 324, 324, 327, 326,
1552, 325, 325, 326, 327,
1555, 324, 325, 327, 326,
1557, 324, 324, 326, 326,
1559, 324, 325, 327, 326,
1562, 324, 325, 327, 326,
1564, 324, 325, 326, 326,
1566, 324, 324, 326, 328,
1569, 324, 324, 326, 326,
1571, 324, 325, 327, 326,
1573, 324, 325, 327, 325,
1575, 324, 324, 326, 326,
1579, 325, 324, 327, 326,
1581, 324, 324, 327, 326,
1583, 325, 324, 328, 326,
1586, 325, 324, 326, 326,
1588, 325, 324, 327, 326,
1590, 324, 325, 327, 326,
1593, 325, 324, 327, 326,
1595, 324, 324, 326, 325,
1597, 324, 324, 326, 327,
1600, 325, 324, 327, 326,
1602, 325, 324, 327, 326,
1604, 325, 325, 326, 326,
1607, 324, 325, 327, 325,
1609, 325, 324, 327, 326,
1611, 325, 324, 327, 326,
1614, 324, 324, 327, 326,
1616, 324, 325, 326, 324,
1618, 325, 324, 326, 326,
1622, 325, 325, 326, 326,
1624, 325, 324, 327, 325,
1626, 325, 325, 326, 326,
1629, 326, 325, 326, 326,
1631, 325, 325, 326, 327,
1633, 325, 325, 326, 326,
1636, 325, 325, 326, 326,
1638, 324, 325, 326, 325,
1640, 325, 325, 327, 326,
1643, 325, 325, 326, 326,
1645, 325, 325, 327, 325,
1647, 325, 326, 327, 325,
1650, 325, 326, 327, 326,
1652, 325, 325, 326, 326,
1654, 325, 325, 327, 326,
1657, 325, 325, 329, 326,
1659, 325, 325, 326, 325,
1661, 325, 325, 326, 326,
1664, 325, 325, 326, 326,
1667, 325, 325, 326, 326,
1669, 325, 326, 327, 325,
1671, 325, 325, 326, 326,
1674, 325, 326, 326, 325,
1676, 325, 324, 326, 326,
1678, 325, 325, 326, 326,
1681, 324, 326, 326, 326,
1683, 324, 326, 326, 325,
1685, 325, 325, 326, 326,
1688, 325, 325, 326, 326,
1690, 326, 326, 326, 326,
1692, 325, 326, 327, 326,
1695, 325, 326, 327, 326,
1697, 325, 326, 326, 326,
1699, 325, 325, 327, 326,
1702, 325, 324, 327, 326,
1704, 326, 326, 326, 327,
1707, 325, 326, 326, 327,
1710, 325, 325, 326, 326,
1712, 325, 326, 327, 326,
1714, 325, 326, 326, 326,
1717, 325, 326, 327, 326,
1719, 325, 326, 326, 326,
1721, 325, 326, 326, 326,
1724, 325, 326, 327, 326,
1726, 325, 327, 327, 326,
1728, 326, 326, 326, 327,
1731, 326, 326, 327, 327,
1733, 325, 326, 327, 326,
1735, 327, 327, 327, 325,
1738, 326, 326, 326, 326,
1740, 326, 325, 326, 326,
1742, 325, 326, 326, 328,
1745, 325, 326, 327, 326,
1747, 325, 327, 327, 326,
1750, 326, 326, 327, 327,
1752, 325, 326, 327, 326,
1755, 325, 326, 327, 326,
1757, 326, 326, 327, 326,
1759, 326, 326, 329, 326,
1762, 325, 326, 327, 326,
1764, 326, 326, 327, 326,
1766, 325, 326, 327, 326,
1769, 325, 327, 327, 325,
1771, 326, 326, 326, 326,
1773, 325, 326, 326, 325,
1776, 325, 329, 326, 326,
1778, 325, 326, 327, 325,
1780, 325, 326, 326, 326,
1783, 326, 326, 326, 327,
1785, 325, 326, 326, 326,
1787, 325, 326, 326, 326,
1790, 325, 326, 327, 325,
1793, 324, 326, 326, 326,
1795, 325, 326, 326, 326,
1798, 326, 325, 326, 326,
1800, 325, 326, 327, 325,
1802, 326, 325, 326, 325,
1805, 325, 326, 326, 326,
1807, 326, 325, 326, 326,
1809, 326, 325, 327, 325,
1812, 326, 326, 327, 325,
1814, 326, 326, 326, 326,
1816, 325, 325, 326, 325,
1819, 325, 325, 326, 325,
1821, 325, 326, 326, 325,
1823, 325, 326, 326, 325,
1826, 325, 326, 326, 326,
1828, 326, 325, 326, 325,
1830, 325, 325, 325, 325,
1833, 325, 326, 326, 325,
1836, 325, 326, 326, 325,
1838, 325, 324, 326, 326,
1840, 325, 325, 326, 325,
1843, 325, 325, 326, 325,
1845, 325, 326, 326, 325,
1847, 325, 325, 326, 326,
1850, 325, 326, 326, 326,
1852, 325, 325, 326, 326,
1854, 325, 326, 326, 326,
1857, 326, 326, 326, 326,
1859, 324, 326, 326, 325,
1861, 325, 326, 326, 326,
1864, 325, 325, 326, 326,
1866, 325, 326, 326, 325,
1868, 325, 325, 326, 325,
1871, 325, 325, 326, 326,
1873, 325, 325, 326, 326,
1875, 325, 325, 326, 326,
1879, 324, 325, 326, 326,
1881, 325, 325, 326, 326,
1883, 325, 325, 326, 326,
1886, 325, 325, 326, 326,
1888, 325, 325, 327, 326,
1890, 325, 325, 326, 326,
1893, 325, 325, 326, 326,
1895, 323, 325, 326, 326,
1897, 325, 325, 327, 326,
1900, 324, 326, 326, 325,
1902, 325, 325, 326, 327,
1904, 325, 325, 326, 326,
1907, 325, 325, 326, 325,
1909, 324, 326, 326, 325,
1911, 325, 326, 326, 325,
1914, 325, 325, 325, 326,
1916, 324, 325, 326, 326,
1918, 324, 325, 326, 326,
1922, 325, 325, 326, 326,
1924, 324, 325, 326, 326,
1926, 325, 325, 326, 326,
1928, 325, 326, 326, 325,
1931, 325, 324, 326, 325,
1933, 325, 325, 325, 326,
1935, 324, 325, 327, 325,
1938, 325, 325, 326, 325,
1940, 325, 326, 326, 325,
1942, 325, 326, 326, 325,
1945, 325, 326, 326, 324,
1947, 325, 325, 326, 324,
1949, 324, 325, 326, 325,
1952, 324, 329, 326, 326,
1954, 324, 325, 326, 325,
1956, 325, 325, 326, 326,
1959, 325, 325, 326, 325,
1961, 325, 326, 326, 325,
1964, 325, 326, 325, 327,
1967, 325, 326, 326, 326,
1969, 328, 325, 327, 326,
1971, 325, 325, 326, 325,
1974, 325, 325, 327, 325,
1976, 324, 326, 326, 324,
1978, 326, 326, 326, 327,
1981, 325, 326, 326, 325,
1983, 325, 325, 325, 325,
1985, 325, 326, 327, 325,
1988, 325, 325, 327, 325,
1990, 325, 325, 326, 326,
1992, 325, 325, 326, 325,
1995, 325, 325, 327, 325,
1997, 325, 326, 326, 326,
1999, 325, 326, 326, 326,
2002, 325, 325, 326, 325,
2004, 325, 325, 326, 325,
2007, 325, 325, 326, 325,
2010, 325, 326, 326, 325,
2012, 325, 326, 326, 326,
2014, 325, 325, 326, 325,
2016, 325, 326, 326, 325,
2019, 324, 326, 326, 325,
2021, 324, 325, 326, 324,
2023, 325, 325, 325, 325,
2026, 325, 326, 326, 325,
2028, 324, 325, 326, 325,
2030, 325, 326, 326, 325,
2033, 325, 325, 325, 326,
2035, 325, 325, 326, 325,
2037, 324, 325, 329, 326,
2040, 325, 326, 326, 326,
2042, 325, 325, 325, 326,
2044, 325, 325, 326, 327,
2048, 326, 325, 325, 326,
2050, 325, 326, 326, 326,
2052, 325, 326, 326, 325,
2055, 325, 325, 325, 326,
2057, 325, 325, 326, 326,
2059, 324, 325, 326, 326,
2062, 325, 326, 326, 326,
2064, 324, 326, 326, 325,
2066, 325, 325, 326, 326,
2069, 325, 325, 326, 326,
2071, 325, 325, 327, 326,
2073, 324, 326, 326, 326,
2076, 325, 326, 326, 327,
2078, 325, 325, 326, 327,
2080, 324, 325, 327, 327,
2083, 324, 324, 326, 327,
2085, 324, 326, 326, 327,
2087, 324, 326, 326, 328,
2091, 324, 325, 326, 327,
2093, 325, 325, 327, 327,
2095, 324, 326, 327, 327,
2098, 325, 325, 326, 327,
2100, 324, 325, 327, 327,
2102, 324, 325, 327, 326,
2104, 325, 325, 327, 327,
2107, 324, 326, 326, 326,
2109, 325, 325, 326, 327,
2111, 324, 324, 327, 327,
2114, 324, 325, 326, 327,
2116, 324, 325, 326, 327,
2118, 324, 325, 326, 327,
2121, 324, 325, 326, 327,
2123, 324, 326, 326, 325,
2125, 324, 326, 326, 326,
2128, 323, 326, 326, 327,
2130, 324, 325, 326, 327,
2132, 324, 326, 327, 326,
2136, 325, 325, 326, 327,
2138, 324, 325, 327, 326,
2140, 325, 325, 325, 326,
2143, 324, 325, 326, 327,
2145, 328, 325, 326, 326,
2147, 324, 325, 326, 326,
2150, 324, 326, 327, 325,
2152, 325, 325, 326, 326,
2154, 324, 325, 326, 326,
2157, 324, 324, 326, 326,
2159, 324, 325, 327, 326,
2161, 323, 325, 326, 326,
2164, 324, 326, 326, 326,
2166, 324, 325, 326, 326,
2168, 324, 325, 326, 326,
2171, 324, 325, 326, 326,
2173, 322, 325, 326, 326,
2176, 325, 325, 326, 326,
2179, 324, 324, 326, 325,
2181, 324, 326, 326, 325,
2183, 324, 325, 326, 325,
2185, 325, 325, 326, 326,
2188, 325, 325, 326, 326,
2190, 325, 325, 326, 326,
2192, 325, 325, 326, 326,
2195, 325, 325, 326, 327,
2197, 325, 325, 326, 329,
2199, 324, 326, 326, 326,
2202, 325, 327, 326, 326,
2204, 325, 325, 326, 326,
2206, 325, 325, 326, 327,
2209, 325, 325, 326, 326,
2211, 325, 324, 326, 326,
2213, 325, 325, 329, 326,
2216, 325, 325, 326, 326,
2219, 325, 325, 326, 327,
2221, 325, 325, 326, 326,
2224, 325, 324, 327, 326,
2226, 325, 325, 326, 326,
2228, 325, 325, 326, 327,
2231, 325, 328, 327, 326,
2233, 325, 325, 327, 326,
2235, 326, 325, 327, 326,
2238, 325, 325, 326, 326,
2240, 325, 325, 326, 327,
2242, 325, 324, 326, 326,
2245, 325, 325, 327, 326,
2247, 325, 325, 326, 326,
2249, 325, 325, 326, 324,
2252, 325, 325, 326, 326,
2254, 325, 325, 327, 326,
2256, 325, 325, 327, 325,
2259, 325, 326, 326, 325,
2262, 326, 325, 326, 326,
2264, 326, 325, 326, 326,
2267, 325, 325, 326, 325,
2269, 325, 325, 326, 326,
2271, 326, 325, 326, 326,
2273, 325, 325, 325, 326,
2276, 325, 325, 326, 325,
2278, 325, 325, 326, 325,
2280, 325, 325, 326, 325,
2283, 325, 326, 326, 327,
2285, 325, 324, 326, 326,
2287, 325, 324, 326, 325,
2290, 325, 325, 326, 324,
2292, 325, 325, 326, 326,
2294, 325, 324, 325, 325,
2297, 326, 325, 326, 325,
2299, 325, 325, 326, 325,
2301, 326, 325, 326, 326,
2305, 325, 325, 326, 326,
2307, 326, 325, 326, 326,
2309, 325, 325, 326, 326,
2312, 325, 324, 327, 326,
2314, 326, 325, 326, 326,
2316, 326, 325, 325, 326,
2319, 326, 325, 326, 326,
2321, 326, 325, 326, 326,
2323, 326, 325, 326, 326,
2326, 325, 325, 326, 327,
2328, 325, 325, 326, 326,
2330, 325, 325, 326, 326,
2333, 325, 324, 326, 326,
2335, 326, 326, 326, 326,
2337, 326, 325, 327, 327,
2340, 326, 325, 326, 326,
2342, 325, 325, 326, 326,
2344, 325, 324, 326, 326,
2348, 326, 326, 326, 327,
2350, 325, 325, 326, 327,
2352, 325, 325, 326, 327,
2355, 325, 325, 326, 326,
2357, 324, 325, 326, 326,
2359, 325, 325, 326, 328,
2361, 325, 325, 328, 327,
2364, 326, 325, 327, 327,
2366, 326, 325, 326, 327,
2368, 326, 325, 326, 327,
2371, 326, 325, 326, 327,
2373, 326, 324, 326, 331,
2375, 326, 325, 326, 325,
2378, 326, 325, 327, 325,
2380, 326, 324, 326, 325,
2382, 326, 325, 326, 326,
2385, 326, 324, 326, 327,
2387, 326, 325, 326, 327,
2390, 326, 325, 330, 327,
2393, 326, 325, 326, 329,
2395, 326, 326, 325, 327,
2397, 326, 325, 326, 327,
2400, 326, 326, 326, 327,
2402, 326, 326, 326, 326,
2404, 326, 325, 325, 328,
2407, 327, 329, 326, 328,
2409, 326, 326, 326, 328,
2411, 327, 326, 326, 328,
2414, 326, 326, 326, 329,
2416, 326, 326, 326, 328,
2418, 326, 325, 326, 328,
2421, 326, 325, 326, 327,
2423, 326, 326, 326, 329,
2425, 326, 326, 326, 329,
2428, 326, 325, 325, 328,
2430, 326, 325, 326, 328,
2433, 325, 326, 326, 328,
2436, 326, 326, 326, 328,
2438, 326, 325, 326, 328,
2440, 327, 326, 325, 328,
2443, 327, 326, 326, 329,
2445, 326, 326, 326, 328,
2447, 327, 325, 325, 329,
2449, 326, 325, 326, 328,
2452, 326, 326, 326, 328,
2454, 326, 326, 326, 328,
2456, 326, 326, 326, 327,
2459, 327, 326, 325, 328,
2461, 326, 326, 326, 327,
2463, 326, 326, 326, 327,
2466, 327, 326, 325, 328,
2468, 327, 326, 325, 329,
2470, 326, 324, 325, 328,
2473, 326, 325, 325, 328,
2476, 326, 326, 325, 327,
2478, 326, 326, 325, 327,
2481, 326, 326, 326, 328,
2483, 326, 326, 326, 328,
2485, 326, 326, 326, 328,
2488, 326, 327, 326, 328,
2490, 326, 326, 325, 329,
2492, 326, 326, 325, 328,
2495, 326, 326, 326, 328,
2497, 326, 326, 325, 328,
2499, 327, 326, 326, 328,
2502, 326, 325, 326, 328,
2504, 326, 326, 326, 327,
2506, 326, 326, 327, 327,
2509, 325, 325, 326, 328,
2511, 326, 326, 326, 328,
2513, 326, 326, 326, 328,
2516, 326, 326, 326, 328,
2519, 326, 327, 326, 328,
2521, 326, 327, 326, 327,
2524, 325, 326, 325, 329,
2526, 325, 326, 326, 329,
2528, 325, 326, 327, 328,
2531, 326, 326, 326, 328,
2533, 326, 326, 326, 329,
2535, 325, 326, 326, 329,
2537, 324, 327, 327, 328,
2540, 325, 326, 327, 328,
2542, 325, 326, 326, 329,
2544, 325, 326, 326, 329,
2547, 324, 326, 327, 328,
2549, 324, 326, 327, 327,
2551, 324, 326, 327, 327,
2554, 324, 326, 326, 329,
2556, 324, 325, 327, 328,
2558, 324, 326, 327, 328,
2562, 324, 326, 327, 328,
2564, 324, 326, 327, 327,
2566, 324, 326, 328, 328,
2569, 324, 326, 327, 328,
2571, 325, 325, 327, 328,
2573, 324, 326, 327, 328,
2576, 324, 326, 327, 329,
2578, 324, 325, 327, 328,
2580, 322, 326, 327, 329,
2583, 323, 327, 328, 328,
2585, 322, 326, 328, 327,
2587, 323, 326, 327, 328,
2590, 323, 325, 326, 328,
2592, 322, 325, 327, 328,
2594, 322, 326, 328, 328,
2597, 322, 326, 328, 329,
2599, 326, 326, 328, 328,
2601, 322, 325, 327, 329,
2605, 322, 325, 328, 329,
2607, 322, 326, 328, 329,
2609, 323, 326, 328, 329,
2612, 322, 325, 328, 329,
2614, 322, 325, 327, 329,
2616, 321, 325, 329, 329,
2619, 321, 325, 327, 329,
2621, 321, 325, 327, 330,
2623, 321, 324, 328, 329,
2625, 320, 325, 328, 328,
2628, 321, 325, 328, 328,
2630, 320, 325, 328, 328,
2632, 321, 325, 328, 329,
2635, 321, 325, 328, 329,
2637, 320, 325, 328, 328,
2639, 321, 325, 328, 328,
2642, 320, 325, 327, 327,
2644, 320, 324, 328, 328,
2647, 319, 325, 328, 328,
2650, 320, 324, 328, 328,
2652, 320, 325, 327, 329,
2654, 320, 325, 327, 329,
2657, 320, 325, 328, 329,
2659, 320, 325, 328, 329,
2661, 320, 325, 328, 328,
2664, 319, 325, 327, 329,
2666, 320, 325, 326, 329,
2668, 319, 324, 328, 329,
2671, 319, 326, 328, 328,
2673, 319, 326, 327, 330,
2675, 319, 325, 327, 329,
2678, 319, 326, 327, 329,
2680, 319, 325, 328, 329,
2682, 319, 326, 328, 328,
2685, 319, 326, 327, 329,
2688, 318, 326, 327, 329,
2690, 318, 325, 327, 328,
2693, 318, 325, 328, 327,
2695, 318, 327, 327, 328,
2697, 318, 326, 327, 328,
2700, 317, 325, 327, 328,
2702, 318, 326, 327, 328,
2704, 317, 326, 327, 328,
2707, 318, 326, 327, 328,
2709, 318, 326, 327, 328,
2711, 317, 326, 327, 328,
2713, 317, 326, 327, 328,
2716, 317, 327, 327, 327,
2718, 317, 325, 327, 328,
2720, 317, 326, 326, 328,
2723, 316, 326, 327, 328,
2725, 317, 326, 326, 328,
2727, 317, 326, 326, 328,
2731, 316, 326, 326, 327,
2733, 316, 326, 326, 328,
2735, 317, 326, 327, 327,
2738, 315, 326, 326, 327,
2740, 315, 326, 326, 327,
2742, 315, 326, 326, 327,
2745, 315, 326, 326, 327,
2747, 317, 326, 326, 327,
2749, 315, 326, 326, 327,
2752, 314, 326, 326, 328,
2754, 314, 326, 326, 327,
2756, 313, 326, 326, 327,
2759, 314, 327, 325, 327,
2761, 314, 327, 325, 328,
2763, 314, 327, 325, 328,
2766, 313, 326, 326, 327,
2768, 313, 326, 326, 327,
2770, 312, 327, 325, 328,
2774, 312, 326, 325, 327,
2776, 312, 326, 326, 327,
2778, 312, 326, 324, 327,
2781, 311, 327, 325, 327,
2783, 311, 327, 325, 326,
2785, 311, 326, 325, 327,
2788, 311, 325, 325, 327,
2790, 310, 326, 325, 327,
2792, 310, 327, 325, 327,
2794, 310, 326, 325, 327,
2797, 310, 326, 324, 327,
2799, 309, 326, 324, 327,
2801, 308, 326, 324, 326,
2804, 307, 327, 324, 327,
2806, 308, 326, 324, 328,
2808, 307, 326, 324, 327,
2811, 307, 326, 324, 327,
2813, 306, 326, 324, 326,
2816, 306, 326, 324, 328,
2819, 305, 326, 324, 326,
2821, 304, 326, 324, 327,
2823, 304, 326, 324, 326,
2826, 303, 327, 324, 326,
2828, 304, 326, 323, 329,
2830, 303, 325, 324, 327,
2833, 302, 326, 323, 326,
2835, 302, 326, 323, 326,
2837, 301, 326, 323, 327,
2840, 300, 326, 323, 327,
2842, 299, 325, 323, 326,
2844, 298, 326, 325, 326,
2847, 298, 325, 323, 326,
2849, 299, 325, 324, 326,
2851, 298, 326, 323, 326,
2854, 297, 325, 322, 326,
2856, 296, 326, 323, 326,
2859, 295, 326, 323, 325,
2862, 295, 329, 324, 326,
2864, 295, 325, 324, 326,
2866, 294, 325, 324, 326,
2869, 292, 326, 323, 326,
2871, 293, 325, 322, 327,
2873, 292, 325, 323, 326,
2876, 290, 326, 323, 326,
2878, 292, 325, 323, 326,
2880, 289, 325, 323, 327,
2882, 289, 325, 323, 327,
2885, 288, 325, 323, 326,
2887, 288, 326, 323, 326,
2889, 288, 325, 323, 326,
2892, 286, 326, 322, 326,
2894, 285, 326, 323, 327,
2896, 285, 325, 323, 326,
2899, 285, 326, 323, 326,
2902, 284, 325, 322, 326,
2904, 284, 325, 322, 327,
2907, 284, 326, 323, 326,
2909, 283, 326, 322, 326,
2911, 282, 325, 322, 326,
2914, 282, 326, 322, 326,
2916, 280, 325, 322, 327,
2918, 279, 326, 322, 326,
2921, 280, 325, 323, 326,
2923, 279, 325, 322, 326,
2925, 279, 325, 322, 327,
2928, 278, 325, 322, 326,
2930, 278, 325, 321, 325,
2932, 278, 325, 322, 326,
2935, 277, 326, 321, 326,
2937, 277, 326, 321, 326,
2939, 276, 325, 321, 326,
2942, 276, 325, 322, 326,
2945, 274, 327, 321, 326,
2947, 275, 326, 321, 326,
2950, 274, 325, 321, 326,
2952, 274, 326, 321, 326,
2954, 273, 325, 322, 326,
2957, 273, 326, 321, 326,
2959, 272, 326, 320, 327,
2961, 271, 326, 320, 326,
2964, 270, 326, 321, 326,
2966, 269, 326, 320, 326,
2968, 269, 326, 320, 325,
2970, 267, 326, 320, 326,
2973, 267, 326, 320, 326,
2975, 266, 326, 320, 326,
2977, 265, 326, 320, 326,
2980, 263, 326, 320, 325,
2982, 263, 326, 320, 326,
2984, 262, 326, 320, 325,
2988, 260, 326, 320, 325,
2990, 259, 326, 319, 326,
2992, 257, 326, 319, 326,
2995, 256, 326, 320, 325,
2997, 255, 326, 319, 325,
2999, 254, 326, 319, 325,
3002, 253, 327, 319, 327,
3004, 251, 326, 319, 329,
3006, 250, 326, 319, 325,
3009, 248, 326, 318, 326,
3011, 247, 325, 319, 325,
3013, 247, 326, 319, 325,
3016, 246, 326, 318, 325,
3018, 244, 326, 319, 325,
3020, 244, 327, 320, 324,
3023, 243, 326, 318, 326,
3025, 241, 326, 318, 325,
3027, 240, 326, 318, 325,
3031, 239, 326, 319, 324,
3033, 239, 327, 318, 326,
3035, 238, 326, 317, 326,
3038, 237, 330, 317, 325,
3040, 237, 326, 317, 325,
3042, 237, 327, 317, 325,
3045, 236, 326, 317, 325,
3047, 235, 326, 317, 325,
3049, 234, 326, 316, 325,
3052, 234, 326, 317, 326,
3054, 236, 327, 316, 325,
3056, 232, 326, 316, 326,
3058, 231, 326, 316, 325,
3061, 231, 325, 316, 325,
3063, 231, 327, 316, 325,
3065, 231, 325, 317, 325,
3068, 231, 327, 316, 326,
3070, 230, 327, 316, 325,
3073, 230, 327, 316, 325,
3076, 229, 327, 316, 324,
3078, 229, 327, 316, 326,
3080, 228, 326, 316, 325,
3083, 229, 327, 317, 325,
3085, 228, 327, 316, 325,
3087, 229, 327, 315, 325,
3090, 228, 327, 315, 326,
3092, 228, 326, 316, 325,
3094, 228, 327, 315, 325,
3097, 226, 328, 315, 325,
3099, 227, 327, 314, 326,
3101, 227, 326, 314, 325,
3104, 226, 327, 315, 325,
3106, 226, 326, 316, 325,
3108, 226, 327, 314, 326,
3111, 226, 327, 315, 326,
3113, 225, 326, 314, 325,
3116, 225, 326, 315, 325,
3119, 225, 326, 315, 324,
3121, 224, 327, 315, 324,
3123, 225, 326, 314, 325,
3126, 224, 326, 314, 325,
3128, 224, 327, 315, 324,
3130, 223, 327, 315, 324,
3133, 223, 326, 314, 325,
3135, 223, 326, 314, 325,
3137, 223, 326, 315, 324,
3140, 222, 326, 314, 325,
3142, 222, 327, 314, 325,
3144, 221, 326, 314, 325,
3146, 221, 327, 314, 324,
3149, 221, 326, 315, 324,
3151, 220, 326, 314, 324,
3153, 220, 326, 314, 325,
3156, 219, 326, 314, 325,
3159, 219, 326, 315, 324,
3161, 218, 326, 314, 324,
3164, 218, 327, 314, 324,
3166, 218, 326, 314, 325,
3168, 218, 326, 315, 324,
3171, 218, 325, 315, 325,
3173, 218, 326, 315, 324,
3175, 218, 325, 315, 325,
3178, 218, 325, 315, 325,
3180, 218, 326, 316, 327,
3182, 217, 325, 316, 324,
3185, 218, 326, 315, 325,
3187, 218, 326, 315, 324,
3189, 217, 325, 316, 325,
3192, 218, 325, 316, 325,
3194, 217, 326, 316, 324,
3196, 218, 326, 317, 324,
3200, 218, 325, 316, 325,
3202, 218, 325, 315, 325,
3204, 218, 326, 316, 324,
3207, 217, 326, 316, 325,
3209, 218, 326, 316, 324,
3211, 218, 325, 316, 325,
3214, 218, 326, 316, 325,
3216, 218, 325, 316, 324,
3218, 219, 326, 316, 325,
3221, 218, 325, 316, 325,
3223, 218, 325, 316, 325,
3225, 219, 325, 316, 324,
3228, 219, 325, 315, 325,
3230, 222, 326, 315, 323,
3232, 219, 325, 316, 325,
3234, 218, 325, 315, 325,
3237, 219, 326, 315, 324,
3239, 219, 326, 315, 324,
3241, 220, 324, 315, 325,
3245, 221, 326, 315, 325,
3247, 221, 325, 315, 325,
3249, 222, 326, 315, 324,
3252, 222, 326, 315, 326,
3254, 222, 325, 314, 325,
3256, 221, 326, 315, 325,
3259, 220, 326, 315, 325,
3261, 224, 326, 314, 325,
3263, 224, 326, 314, 326,
3266, 225, 325, 314, 325,
3268, 226, 326, 314, 325,
3270, 227, 326, 314, 325,
3273, 226, 326, 314, 324,
3275, 228, 326, 314, 325,
3277, 229, 325, 314, 325,
3280, 230, 326, 314, 324,
3282, 230, 326, 314, 330,
3284, 231, 326, 313, 326,
3288, 233, 326, 314, 325,
3290, 233, 325, 313, 325,
3292, 234, 325, 313, 325,
3295, 235, 326, 312, 326,
3297, 236, 326, 312, 326,
3299, 237, 326, 311, 325,
3302, 238, 325, 312, 325,
3304, 239, 326, 311, 324,
3306, 239, 325, 311, 325,
3309, 241, 326, 311, 325,
3311, 241, 325, 310, 325,
3313, 242, 325, 310, 325,
3316, 243, 324, 310, 325,
3318, 244, 325, 309, 326,
3320, 245, 325, 308, 325,
3322, 246, 325, 309, 325,
3325, 247, 326, 308, 325,
3328, 248, 325, 308, 325,
3330, 249, 325, 307, 326,
3333, 250, 325, 308, 325,
3335, 251, 325, 307, 325,
3337, 252, 325, 307, 325,
3340, 253, 326, 306, 326,
3342, 254, 325, 306, 325,
3344, 254, 326, 306, 325,
3347, 256, 326, 306, 325,
3349, 257, 326, 305, 324,
3351, 258, 326, 305, 326,
3354, 259, 326, 304, 325,
3356, 260, 326, 305, 325,
3358, 261, 326, 304, 324,
3361, 263, 325, 304, 325,
3363, 263, 326, 304, 325,
3365, 265, 326, 304, 325,
3368, 265, 324, 304, 325,
3371, 267, 326, 303, 326,
3373, 267, 325, 304, 325,
3376, 269, 325, 302, 325,
3378, 269, 326, 304, 325,
3380, 269, 326, 303, 324,
3383, 271, 325, 303, 326,
3385, 273, 325, 302, 325,
3387, 274, 325, 301, 325,
3390, 274, 326, 302, 325,
3392, 275, 326, 302, 324,
3394, 277, 324, 302, 326,
3397, 278, 325, 302, 325,
3399, 278, 324, 302, 325,
3401, 279, 325, 302, 324,
3403, 281, 325, 301, 325,
3406, 282, 325, 301, 325,
3408, 282, 326, 301, 325,
3410, 284, 325, 301, 324,
3414, 285, 326, 301, 325,
3416, 286, 325, 300, 326,
3418, 286, 324, 301, 325,
3421, 288, 325, 300, 325,
3423, 288, 325, 300, 324,
3425, 289, 325, 300, 324,
3428, 291, 326, 300, 325,
3430, 292, 325, 300, 325,
3432, 293, 325, 300, 325,
3435, 292, 325, 300, 325,
3437, 295, 325, 299, 326,
3439, 295, 326, 299, 325,
3442, 296, 325, 300, 325,
3444, 297, 325, 299, 324,
3446, 297, 325, 299, 326,
3449, 299, 325, 299, 326,
3451, 300, 324, 299, 325,
3453, 300, 325, 299, 325,
3457, 301, 326, 299, 325,
3459, 303, 326, 299, 330,
3461, 304, 325, 299, 325,
3464, 305, 325, 298, 325,
3466, 305, 326, 298, 325,
3468, 306, 326, 298, 325,
3471, 307, 325, 298, 326,
3473, 308, 325, 298, 326,
3475, 308, 324, 298, 325,
3478, 309, 326, 297, 326,
3480, 311, 325, 297, 326,
3482, 312, 325, 297, 326,
3485, 313, 325, 297, 325,
3487, 313, 324, 296, 325,
3489, 314, 325, 296, 326,
3491, 314, 325, 296, 325,
3494, 315, 325, 296, 325,
3496, 315, 325, 296, 325,
3499, 316, 325, 295, 325,
3502, 316, 325, 295, 324,
3504, 318, 324, 294, 325,
3506, 318, 324, 294, 325,
3509, 322, 325, 294, 325,
3511, 319, 325, 294, 325,
3513, 320, 324, 293, 326,
3516, 320, 324, 293, 325,
3518, 320, 325, 293, 326,
3520, 322, 325, 293, 325,
3523, 323, 325, 293, 325,
3525, 324, 324, 292, 325,
3527, 324, 325, 292, 326,
3530, 325, 324, 292, 325,
3532, 324, 324, 291, 326,
3534, 325, 324, 291, 326,
3537, 325, 324, 291, 326,
3539, 326, 324, 290, 325,
3542, 327, 324, 291, 325,
3545, 327, 325, 291, 325,
3547, 328, 324, 290, 326,
3549, 328, 324, 290, 326,
3552, 328, 323, 291, 325,
3554, 328, 324, 291, 325,
3556, 328, 324, 290, 325,
3559, 328, 324, 290, 325,
3561, 328, 323, 290, 325,
3563, 328, 323, 291, 325,
3566, 328, 324, 290, 326,
3568, 328, 324, 289, 326,
3570, 329, 323, 290, 325,
3573, 329, 324, 290, 325,
3575, 330, 324, 290, 325,
3577, 329, 323, 289, 326,
3579, 330, 323, 291, 325,
3582, 330, 324, 290, 325,
3585, 330, 324, 290, 325,
3587, 329, 324, 291, 325,
3590, 330, 323, 290, 326,
3592, 330, 323, 290, 325,
3594, 329, 324, 290, 325,
3597, 329, 323, 290, 325,
3599, 330, 323, 290, 326,
3601, 330, 323, 290, 327,
3604, 329, 323, 290, 326,
3606, 329, 324, 290, 325,
3608, 329, 324, 290, 325,
3611, 328, 324, 290, 326,
3613, 330, 324, 290, 326,
3615, 329, 324, 290, 325,
3618, 329, 324, 290, 325,
3620, 329, 325, 290, 326,
3622, 329, 324, 290, 325,
3625, 329, 324, 290, 325,
3628, 329, 325, 290, 326,
3630, 330, 324, 290, 326,
3633, 331, 324, 290, 326,
3635, 331, 324, 290, 330,
3637, 330, 324, 290, 326,
3640, 330, 324, 290, 325,
3642, 330, 325, 290, 326,
3644, 330, 324, 289, 327,
3647, 330, 324, 289, 326,
3649, 330, 324, 290, 325,
3651, 330, 324, 293, 326,
3654, 331, 324, 290, 326,
3656, 331, 325, 289, 326,
3658, 331, 325, 290, 326,
3661, 331, 325, 290, 326,
3663, 330, 326, 289, 324,
3665, 331, 325, 289, 326,
3667, 331, 327, 290, 325,
3671, 331, 324, 289, 325,
3673, 331, 325, 289, 325,
3675, 332, 325, 289, 325,
3678, 333, 325, 289, 326,
3680, 333, 325, 288, 325,
3682, 332, 325, 290, 326,
3685, 336, 325, 289, 325,
3687, 334, 325, 289, 326,
3689, 334, 324, 289, 326,
3692, 334, 325, 289, 325,
3694, 334, 325, 290, 325,
3696, 335, 326, 290, 327,
3699, 335, 325, 290, 326,
3701, 335, 325, 290, 326,
3703, 335, 325, 290, 325,
3706, 335, 326, 291, 325,
3708, 336, 325, 290, 326,
3710, 336, 325, 290, 326,
3714, 336, 325, 290, 325,
3716, 336, 325, 292, 325,
3718, 336, 325, 291, 325,
3721, 337, 325, 291, 326,
3723, 337, 325, 291, 326,
3725, 337, 325, 291, 325,
3728, 338, 326, 292, 325,
3730, 338, 325, 292, 325,
3732, 339, 325, 292, 326,
3735, 339, 324, 292, 326,
3737, 339, 325, 293, 326,
3739, 340, 326, 293, 325,
3742, 341, 326, 293, 325,
3744, 341, 325, 292, 325,
3746, 341, 325, 292, 326,
3749, 341, 325, 293, 325,
3751, 342, 325, 293, 327,
3753, 342, 325, 293, 326,
3756, 341, 325, 294, 326,
3759, 342, 325, 294, 326,
3761, 341, 325, 294, 325,
3763, 343, 325, 295, 326,
3766, 343, 325, 295, 326,
3768, 342, 324, 295, 326,
3770, 343, 325, 296, 326,
3773, 343, 325, 296, 326,
3775, 343, 325, 296, 326,
3777, 344, 324, 296, 327,
3780, 344, 324, 297, 326,
3782, 344, 325, 297, 326,
3784, 345, 325, 297, 327,
3787, 344, 325, 297, 326,
3789, 345, 325, 298, 326,
3791, 345, 326, 298, 326,
3794, 346, 325, 298, 326,
3796, 346, 325, 298, 328,
3799, 346, 323, 298, 326,
3802, 347, 324, 298, 326,
3804, 347, 325, 299, 326,
3806, 347, 325, 299, 326,
3809, 347, 324, 299, 327,
3811, 348, 325, 300, 327,
3813, 347, 324, 300, 326,
3816, 348, 325, 301, 327,
3818, 349, 324, 301, 327,
3820, 349, 325, 301, 327,
3823, 349, 324, 302, 327,
3825, 349, 324, 302, 327,
3827, 350, 325, 304, 327,
3830, 349, 324, 302, 327,
3832, 349, 324, 303, 327,
3834, 350, 324, 304, 327,
3837, 349, 324, 303, 327,
3840, 349, 325, 304, 325,
3842, 350, 324, 304, 327,
3844, 350, 325, 304, 327,
3847, 350, 325, 305, 326,
3849, 351, 325, 305, 326,
3851, 351, 324, 305, 327,
3854, 351, 324, 306, 327,
3856, 351, 324, 305, 328,
3858, 352, 324, 307, 327,
3861, 352, 326, 307, 327,
3863, 352, 324, 307, 327,
3865, 352, 324, 308, 327,
3868, 352, 324, 309, 327,
3870, 352, 324, 309, 326,
3872, 352, 324, 309, 326,
3875, 353, 325, 309, 328,
3877, 352, 325, 310, 327,
3879, 353, 324, 310, 326,
3883, 352, 325, 311, 326,
3885, 353, 324, 310, 327,
3887, 353, 324, 312, 327,
3890, 352, 324, 312, 327,
3892, 353, 325, 312, 326,
3894, 353, 324, 312, 327,
3897, 353, 324, 313, 327,
3899, 353, 324, 314, 327,
3901, 353, 323, 314, 327,
3904, 354, 324, 314, 327,
3906, 354, 324, 315, 327,
3908, 354, 324, 315, 327,
3911, 355, 324, 316, 326,
3913, 354, 324, 316, 326,
3915, 354, 324, 316, 327,
3918, 355, 324, 317, 326,
3920, 355, 323, 317, 327,
3922, 354, 323, 318, 326,
3926, 356, 324, 318, 327,
3928, 355, 323, 317, 327,
3930, 355, 323, 319, 326,
3932, 354, 324, 319, 326,
3935, 355, 324, 320, 326,
3937, 354, 323, 319, 327,
3939, 355, 324, 320, 327,
3942, 355, 324, 321, 327,
3944, 355, 324, 321, 327,
3946, 355, 327, 321, 326,
3949, 355, 324, 321, 328,
3951, 355, 324, 322, 327,
3953, 355, 323, 322, 327,
3956, 355, 324, 323, 326,
3958, 356, 324, 323, 327,
3960, 356, 323, 324, 327,
3963, 356, 324, 324, 327,
3965, 356, 324, 324, 327,
3968, 357, 324, 325, 327,
3971, 357, 323, 325, 326,
3973, 356, 323, 325, 327,
3975, 355, 324, 326, 327,
3978, 355, 322, 326, 327,
3980, 357, 323, 327, 327,
3982, 356, 323, 326, 328,
3985, 355, 323, 327, 327,
3987, 355, 323, 328, 327,
3989, 355, 324, 328, 326,
3992, 355, 324, 329, 326,
3994, 355, 323, 328, 327,
3996, 356, 323, 328, 327,
3999, 355, 324, 329, 327,
4001, 356, 324, 329, 326,
4003, 356, 324, 330, 327,
4006, 355, 323, 330, 327,
4008, 356, 323, 330, 327,
4011, 356, 324, 330, 326,
4013, 356, 323, 330, 327,
4016, 356, 323, 330, 326,
4018, 356, 324, 331, 327,
4020, 356, 324, 331, 326,
4023, 356, 324, 331, 326,
4025, 356, 323, 331, 328,
4027, 355, 322, 332, 327,
4030, 355, 323, 332, 327,
4032, 355, 323, 331, 327,
4034, 356, 323, 333, 326,
4037, 356, 323, 333, 327,
4039, 356, 323, 334, 327,
4041, 356, 322, 334, 326,
4044, 355, 324, 334, 326,
4046, 356, 323, 334, 327,
4048, 356, 322, 334, 326,
4051, 356, 323, 335, 326,
4054, 357, 323, 335, 326,
4056, 356, 323, 334, 327,
4059, 357, 323, 335, 328,
4061, 357, 323, 334, 327,
4063, 356, 323, 335, 326,
4066, 355, 324, 335, 326,
4068, 356, 324, 335, 326,
4070, 356, 324, 336, 327,
4073, 356, 323, 335, 326,
4075, 356, 324, 336, 326,
4077, 356, 325, 336, 326,
4080, 357, 324, 336, 327,
4082, 357, 324, 336, 326,
4084, 357, 323, 336, 326,
4087, 356, 324, 336, 327,
4089, 357, 324, 336, 329,
4091, 357, 324, 336, 327,
4094, 357, 324, 336, 326,
4097, 357, 324, 336, 326,
4099, 357, 324, 336, 326,
4101, 358, 324, 336, 327,
4104, 357, 324, 337, 326,
4106, 357, 324, 339, 326,
4108, 357, 324, 337, 326,
4111, 357, 325, 337, 325,
4113, 357, 324, 337, 326,
4115, 357, 324, 337, 326,
4118, 356, 324, 337, 326,
4120, 356, 324, 337, 326,
4122, 356, 327, 337, 327,
4125, 357, 324, 336, 326,
4127, 356, 325, 337, 326,
4129, 356, 325, 337, 326,
4132, 357, 325, 337, 326,
4134, 357, 324, 337, 326,
4136, 357, 325, 337, 326,
4140, 359, 324, 338, 326,
4142, 356, 324, 337, 325,
4144, 357, 324, 337, 325,
4147, 357, 324, 338, 326,
4149, 357, 324, 337, 326,
4151, 357, 324, 338, 326,
4154, 357, 325, 338, 326,
4156, 357, 324, 339, 326,
4158, 357, 323, 338, 326,
4161, 357, 323, 339, 326,
4163, 357, 323, 338, 326,
4165, 358, 324, 338, 326,
4168, 357, 324, 339, 326,
4170, 357, 324, 339, 326,
4172, 357, 325, 339, 326,
4175, 358, 325, 338, 325,
4177, 357, 325, 338, 327,
4179, 357, 325, 339, 326,
4183, 355, 324, 339, 326,
4185, 357, 325, 339, 326,
4187, 357, 325, 338, 326,
4189, 357, 324, 338, 326,
4192, 356, 325, 339, 326,
4194, 356, 325, 339, 326,
4196, 357, 325, 339, 327,
4199, 357, 325, 338, 327,
4201, 356, 324, 338, 327,
4203, 356, 326, 339, 326,
4206, 357, 325, 339, 326,
4208, 358, 325, 339, 327,
4210, 357, 325, 339, 327,
4213, 357, 325, 339, 326,
4215, 357, 326, 339, 326,
4217, 357, 325, 339, 326,
4220, 356, 326, 339, 325,
4222, 357, 324, 340, 326,
4225, 356, 324, 340, 327,
4228, 356, 325, 339, 326,
4230, 356, 326, 340, 326,
4232, 356, 325, 339, 326,
4235, 357, 325, 339, 326,
4237, 356, 324, 340, 326,
4239, 357, 325, 340, 326,
4242, 357, 325, 339, 327,
4244, 356, 325, 340, 327,
4246, 356, 325, 340, 326,
4249, 356, 324, 341, 325,
4251, 356, 325, 340, 325,
4253, 356, 325, 341, 326,
4256, 357, 325, 340, 326,
4258, 356, 325, 340, 326,
4260, 356, 325, 341, 326,
4263, 357, 325, 340, 326,
4265, 356, 325, 340, 327,
4268, 356, 325, 340, 326,
4271, 356, 325, 341, 326,
4273, 356, 326, 341, 325,
4275, 356, 325, 340, 326,
4277, 356, 325, 340, 326,
4280, 356, 324, 341, 326,
4282, 356, 325, 344, 325,
4284, 356, 325, 340, 326,
4287, 356, 326, 341, 325,
4289, 356, 324, 341, 326,
4291, 356, 325, 341, 326,
4294, 356, 325, 341, 324,
4296, 355, 324, 341, 325,
4298, 356, 325, 341, 326,
4301, 356, 325, 340, 326,
4303, 355, 325, 341, 326,
4305, 356, 325, 341, 326,
4308, 356, 325, 341, 326,
4311, 356, 324, 340, 326,
4313, 356, 325, 341, 326,
4316, 358, 325, 341, 325,
4318, 357, 325, 341, 326,
4320, 355, 325, 341, 326,
4323, 355, 325, 340, 326,
4325, 355, 324, 342, 326,
4327, 356, 324, 341, 325,
4330, 356, 325, 341, 326,
4332, 355, 325, 341, 326,
4334, 355, 324, 340, 326,
4337, 354, 325, 341, 326,
4339, 355, 325, 341, 326,
4341, 355, 325, 340, 327,
4344, 354, 325, 340, 326,
4346, 355, 324, 340, 326,
4348, 355, 326, 341, 326,
4352, 355, 325, 340, 326,
4354, 355, 325, 340, 326,
4356, 355, 324, 340, 326,
4359, 354, 325, 340, 325,
4361, 355, 325, 340, 326,
4363, 355, 324, 340, 327,
4365, 355, 324, 340, 326,
4368, 355, 324, 340, 330,
4370, 354, 325, 339, 326,
4372, 355, 325, 339, 326,
4375, 354, 324, 340, 326,
4377, 354, 325, 340, 326,
4379, 355, 325, 340, 326,
4382, 354, 325, 339, 326,
4384, 355, 324, 338, 326,
4386, 354, 324, 339, 327,
4389, 355, 325, 340, 326,
4391, 354, 324, 340, 326,
4393, 354, 323, 339, 327,
4397, 354, 324, 339, 327,
4399, 354, 325, 340, 326,
4401, 354, 324, 340, 326,
4404, 354, 324, 340, 325,
4406, 354, 324, 339, 327,
4408, 354, 323, 340, 326,
4411, 354, 323, 339, 326,
4413, 354, 325, 340, 326,
4415, 354, 324, 339, 325,
4418, 354, 324, 339, 326,
4420, 354, 324, 339, 326,
4422, 354, 324, 340, 325,
4425, 354, 325, 340, 326,
4427, 354, 324, 340, 327,
4429, 354, 324, 340, 326,
4432, 354, 324, 340, 326,
4434, 354, 326, 340, 326,
4436, 354, 325, 340, 326,
4440, 354, 325, 340, 326,
4442, 354, 324, 340, 327,
4444, 354, 325, 340, 326,
4447, 354, 327, 340, 326,
4449, 353, 325, 340, 325,
4451, 354, 325, 340, 325,
4453, 353, 324, 340, 326,
4456, 354, 324, 340, 325,
4458, 353, 324, 341, 325,
4460, 353, 323, 340, 326,
4463, 353, 323, 340, 325,
4465, 353, 324, 341, 326,
4467, 353, 324, 341, 325,
4470, 354, 325, 341, 325,
4472, 353, 324, 340, 326,
4474, 353, 325, 341, 326,
4477, 353, 323, 342, 325,
4480, 353, 324, 341, 325,
4482, 353, 325, 340, 326,
4485, 353, 325, 340, 326,
4487, 353, 325, 340, 326,
4489, 353, 326, 341, 325,
4492, 353, 326, 341, 325,
4494, 352, 326, 341, 326,
4496, 352, 326, 341, 326,
4499, 352, 325, 341, 325,
4501, 352, 327, 341, 325,
4503, 352, 324, 341, 325,
4506, 352, 326, 341, 326,
4508, 353, 327, 341, 326,
4510, 352, 326, 342, 326,
4513, 352, 327, 342, 326,
4515, 352, 327, 342, 325,
4517, 351, 326, 341, 326,
4520, 352, 326, 342, 326,
4523, 351, 326, 341, 326,
4525, 352, 325, 342, 325,
4528, 352, 324, 342, 326,
4530, 352, 325, 342, 326,
4532, 352, 326, 342, 326,
4535, 352, 326, 342, 326,
4537, 352, 326, 342, 326,
4539, 352, 324, 342, 326,
4541, 352, 326, 343, 326,
4544, 352, 324, 343, 330,
4546, 353, 325, 343, 326,
4548, 352, 326, 343, 328,
4551, 352, 326, 344, 326,
4553, 352, 327, 344, 326,
4555, 352, 327, 344, 326,
4558, 351, 327, 344, 327,
4560, 352, 326, 346, 327,
4562, 352, 326, 344, 327,
4566, 352, 327, 344, 326,
4568, 352, 327, 345, 326,
4570, 352, 326, 344, 327,
4573, 352, 327, 345, 327,
4575, 351, 327, 346, 326,
4577, 352, 328, 346, 326,
4580, 350, 327, 346, 327,
4582, 351, 327, 346, 327,
4584, 351, 327, 347, 327,
4587, 351, 326, 348, 327,
4589, 352, 327, 347, 328,
4591, 351, 327, 348, 328,
4594, 351, 327, 348, 327,
4596, 352, 327, 348, 327,
4598, 352, 327, 349, 326,
4601, 351, 327, 349, 326,
4603, 352, 326, 348, 327,
4605, 352, 326, 350, 326,
4609, 352, 326, 350, 326,
4611, 353, 325, 351, 326,
4613, 353, 326, 351, 327,
4616, 352, 326, 351, 326,
4618, 352, 326, 351, 327,
4620, 352, 327, 352, 326,
4622, 353, 328, 352, 327,
4625, 353, 327, 352, 327,
4627, 352, 327, 353, 327,
4629, 352, 327, 353, 326,
4632, 351, 327, 353, 326,
4634, 352, 326, 354, 328,
4636, 352, 325, 354, 327,
4639, 352, 324, 354, 326,
4641, 351, 326, 354, 326,
4643, 351, 326, 354, 326,
4646, 351, 327, 354, 327,
4648, 352, 326, 354, 327,
4651, 351, 327, 355, 327,
4654, 351, 328, 355, 326,
4656, 352, 327, 354, 327,
4658, 352, 326, 355, 327,
4661, 352, 327, 356, 327,
4663, 352, 327, 355, 328,
4665, 352, 327, 356, 326,
4668, 352, 327, 357, 327,
4670, 351, 327, 356, 326,
4672, 352, 327, 357, 326,
4675, 351, 326, 357, 326,
4677, 351, 328, 357, 325,
4679, 352, 325, 357, 327,
4682, 352, 326, 357, 326,
4684, 352, 327, 357, 326,
4686, 352, 327, 358, 326,
4689, 353, 326, 357, 326,
4691, 352, 326, 357, 326,
4694, 352, 326, 359, 326,
4697, 352, 327, 359, 325,
4699, 353, 327, 358, 326,
4701, 352, 326, 359, 327,
4704, 352, 326, 360, 325,
4706, 353, 326, 360, 326,
4708, 352, 326, 360, 325,
4710, 353, 327, 360, 326,
4713, 353, 327, 361, 326,
4715, 353, 326, 361, 326,
4717, 352, 327, 361, 326,
4720, 352, 328, 361, 325,
4722, 353, 326, 360, 326,
4724, 353, 327, 361, 325,
4727, 353, 326, 361, 325,
4729, 352, 327, 361, 325,
4731, 352, 327, 360, 326,
4734, 352, 327, 361, 326,
4737, 352, 327, 366, 326,
4739, 351, 326, 362, 325,
4742, 352, 327, 361, 325,
4744, 352, 327, 361, 327,
4746, 352, 326, 362, 326,
4749, 353, 326, 361, 324,
4751, 353, 326, 362, 326,
4753, 353, 327, 363, 325,
4756, 353, 325, 362, 326,
4758, 352, 326, 363, 325,
4760, 353, 325, 363, 325,
4763, 353, 327, 363, 326,
4765, 353, 326, 363, 325,
4767, 353, 326, 363, 326,
4770, 356, 326, 364, 325,
4772, 353, 325, 364, 325,
4774, 353, 327, 364, 326,
4777, 353, 326, 364, 325,
4780, 353, 326, 364, 325,
4782, 353, 326, 365, 325,
4785, 352, 326, 364, 324,
4787, 353, 326, 363, 326,
4789, 353, 326, 364, 325,
4792, 352, 325, 364, 325,
4794, 353, 326, 363, 326,
4796, 353, 326, 363, 325,
4798, 353, 325, 363, 325,
4801, 352, 325, 364, 326,
4803, 352, 325, 363, 325,
4805, 353, 326, 363, 326,
4808, 353, 326, 363, 326,
4810, 353, 326, 364, 325,
4812, 353, 327, 364, 325,
4815, 353, 326, 364, 325,
4817, 352, 326, 363, 325,
4819, 352, 326, 363, 325,
4823, 353, 326, 364, 325,
4825, 353, 325, 364, 325,
4827, 353, 324, 364, 325,
4830, 353, 325, 364, 324,
4832, 353, 324, 364, 325,
4834, 353, 324, 363, 326,
4837, 352, 326, 363, 325,
4839, 352, 326, 363, 325,
4841, 353, 325, 363, 326,
4844, 353, 326, 363, 325,
4846, 352, 325, 363, 326,
4848, 352, 326, 363, 326,
4851, 353, 326, 363, 326,
4853, 352, 326, 363, 327,
4855, 352, 325, 363, 326,
4858, 352, 325, 363, 325,
4860, 352, 326, 362, 325,
4862, 352, 325, 361, 326,
4866, 352, 325, 362, 326,
4868, 352, 325, 362, 326,
4870, 352, 326, 362, 326,
4873, 351, 325, 362, 326,
4875, 352, 325, 361, 326,
4877, 352, 325, 361, 326,
4880, 351, 325, 361, 325,
4882, 352, 325, 362, 325,
4884, 352, 325, 361, 326,
4886, 352, 324, 361, 326,
4889, 352, 325, 360, 325,
4891, 352, 324, 361, 325,
4893, 352, 323, 360, 325,
4896, 352, 323, 360, 326,
4898, 351, 322, 360, 326,
4900, 351, 323, 361, 325,
4903, 351, 323, 360, 325,
4905, 351, 323, 360, 324,
4908, 351, 323, 361, 325,
4911, 351, 323, 360, 325,
4913, 351, 324, 360, 325,
4915, 352, 324, 359, 324,
4918, 351, 324, 359, 326,
4920, 351, 324, 359, 325,
4922, 350, 325, 359, 325,
4925, 351, 324, 360, 324,
4927, 351, 325, 359, 326,
4929, 351, 326, 358, 325,
4932, 350, 324, 358, 325,
4934, 350, 325, 359, 325,
4936, 351, 324, 358, 325,
4939, 350, 325, 358, 325,
4941, 350, 325, 358, 326,
4943, 350, 324, 357, 325,
4946, 351, 325, 357, 325,
4948, 350, 325, 357, 324,
4951, 351, 325, 356, 326,
4954, 351, 325, 356, 325,
4956, 350, 325, 356, 325,
4958, 350, 326, 355, 325,
4961, 350, 325, 356, 325,
4963, 350, 325, 356, 324,
4965, 350, 324, 356, 325,
4968, 349, 325, 356, 324,
4970, 350, 325, 356, 325,
4972, 350, 325, 356, 326,
4974, 348, 325, 356, 324,
4977, 349, 325, 356, 324,
4979, 349, 325, 355, 324,
4981, 349, 325, 355, 325,
4984, 349, 325, 355, 325,
4986, 349, 324, 355, 324,
4988, 349, 325, 354, 324,
4992, 348, 325, 354, 324,
4994, 349, 324, 353, 325,
4996, 348, 324, 353, 324,
4999, 348, 324, 354, 327,
5001, 348, 324, 354, 323,
5003, 349, 324, 353, 325,
5006, 349, 324, 353, 325,
5008, 348, 324, 353, 324,
5010, 348, 324, 353, 324,
5013, 348, 324, 353, 323,
5015, 348, 324, 351, 324,
5017, 348, 324, 353, 324,
5020, 348, 324, 352, 326,
5022, 347, 325, 352, 324,
5024, 347, 324, 352, 323,
5027, 348, 324, 352, 325,
5029, 348, 323, 352, 324,
5031, 347, 323, 352, 324,
5035, 347, 324, 353, 324,
5037, 347, 324, 352, 324,
5039, 348, 324, 351, 324,
5042, 347, 323, 352, 324,
5044, 347, 323, 351, 324,
5046, 347, 324, 351, 324,
5049, 350, 324, 351, 325,
5051, 347, 324, 351, 324,
5053, 347, 324, 350, 324,
5056, 348, 324, 350, 325,
5058, 347, 325, 350, 323,
5060, 348, 324, 350, 325,
5062, 347, 324, 350, 324,
5065, 347, 325, 349, 324,
5067, 346, 324, 349, 324,
5069, 347, 324, 349, 324,
5072, 347, 325, 349, 325,
5074, 347, 325, 349, 324,
5076, 347, 325, 349, 324,
5080, 348, 325, 349, 325,
5082, 347, 325, 349, 326,
5084, 347, 324, 348, 325,
5087, 347, 324, 348, 324,
5089, 346, 324, 348, 324,
5091, 347, 325, 348, 324,
5094, 346, 325, 347, 325,
5096, 346, 323, 347, 325,
5098, 346, 323, 347, 324,
5101, 346, 324, 347, 323,
5103, 347, 324, 347, 325,
5105, 347, 326, 347, 324,
5108, 347, 326, 348, 324,
5110, 347, 326, 348, 324,
5112, 347, 325, 347, 325,
5115, 347, 325, 347, 324,
5117, 346, 325, 345, 324,
5120, 346, 325, 348, 324,
5123, 347, 325, 346, 324,
5125, 346, 326, 346, 326,
5127, 346, 325, 346, 324,
5130, 346, 325, 345, 324,
5132, 346, 326, 346, 324,
5134, 346, 325, 346, 324,
5137, 346, 324, 345, 324,
5139, 346, 326, 345, 324,
5141, 346, 325, 346, 324,
5144, 346, 325, 345, 325,
5146, 346, 325, 344, 324,
5148, 346, 325, 344, 324,
5150, 345, 325, 344, 324,
5153, 346, 324, 345, 324,
5155, 346, 325, 344, 325,
5157, 346, 325, 344, 324,
5160, 346, 325, 345, 324,
5163, 346, 325, 345, 323,
5165, 346, 325, 344, 323,
5168, 345, 325, 344, 323,
5170, 345, 324, 345, 324,
5172, 345, 324, 344, 324,
5175, 345, 325, 344, 326,
5177, 345, 325, 344, 322,
5179, 345, 323, 343, 324,
5182, 346, 323, 343, 323,
5184, 345, 324, 344, 323,
5186, 346, 324, 344, 323,
5189, 346, 325, 343, 323,
5191, 345, 325, 343, 322,
5193, 344, 325, 344, 323,
5196, 345, 324, 345, 323,
5198, 344, 326, 344, 322,
5200, 344, 325, 344, 324,
5203, 345, 325, 344, 323,
5206, 345, 325, 342, 323,
5208, 344, 326, 343, 323,
5211, 344, 326, 343, 323,
5213, 345, 325, 343, 324,
5215, 345, 325, 342, 323,
5218, 344, 325, 343, 323,
5220, 344, 326, 343, 323,
5222, 345, 325, 342, 324,
5225, 348, 325, 342, 323,
5227, 344, 325, 342, 323,
5229, 344, 325, 342, 323,
5231, 344, 325, 342, 323,
5234, 344, 325, 342, 324,
5236, 344, 324, 342, 323,
5238, 344, 325, 341, 323,
5241, 344, 325, 342, 323,
5243, 343, 325, 342, 322,
5245, 343, 325, 343, 323,
5249, 344, 325, 342, 323,
5251, 343, 325, 342, 323,
5253, 344, 325, 342, 322,
5256, 344, 324, 341, 323,
5258, 343, 323, 341, 323,
5260, 343, 322, 341, 323,
5263, 343, 322, 342, 322,
5265, 343, 323, 341, 323,
5267, 343, 324, 341, 323,
5270, 342, 325, 342, 323,
5272, 343, 325, 341, 323,
5274, 343, 325, 341, 322,
5277, 343, 325, 341, 324,
5279, 343, 325, 340, 323,
5281, 342, 325, 340, 323,
5284, 342, 325, 340, 322,
5286, 343, 325, 340, 322,
5288, 342, 324, 340, 324,
5292, 342, 325, 340, 323,
5294, 342, 324, 340, 323,
5296, 342, 326, 340, 323,
5299, 343, 324, 340, 324,
5301, 342, 325, 339, 324,
5303, 342, 324, 340, 323,
5306, 342, 324, 341, 322,
5308, 343, 325, 339, 323,
5310, 343, 323, 339, 323,
5313, 342, 324, 339, 323,
5315, 342, 323, 339, 323,
5317, 343, 324, 339, 323,
5319, 343, 324, 339, 324,
5322, 343, 324, 338, 323,
5324, 343, 323, 339, 323,
5326, 343, 323, 339, 324,
5329, 343, 324, 339, 323,
5331, 343, 323, 338, 324,
5334, 343, 324, 338, 323,
5337, 343, 324, 339, 323,
5339, 342, 325, 339, 325,
5341, 342, 325, 338, 324,
5344, 342, 325, 338, 324,
5346, 342, 326, 338, 324,
5348, 342, 325, 338, 323,
5351, 342, 326, 338, 324,
5353, 342, 325, 337, 325,
5355, 342, 325, 337, 323,
5358, 342, 325, 336, 323,
5360, 342, 325, 337, 323,
5362, 342, 326, 337, 323,
5365, 342, 325, 337, 324,
5367, 342, 325, 341, 324,
5369, 342, 325, 337, 323,
5372, 342, 325, 337, 324,
5374, 342, 326, 337, 324,
5377, 342, 326, 337, 323,
5380, 341, 326, 337, 322,
5382, 341, 325, 338, 323,
5384, 342, 329, 336, 324,
5387, 341, 326, 336, 324,
5389, 341, 326, 336, 324,
5391, 341, 325, 336, 323,
5394, 340, 326, 336, 323,
5396, 340, 326, 336, 324,
5398, 341, 325, 336, 324,
5401, 342, 326, 337, 323,
5403, 340, 326, 337, 323,
5405, 340, 325, 337, 323,
5407, 341, 325, 336, 323,
5410, 341, 325, 337, 325,
5412, 341, 325, 337, 323,
5414, 342, 326, 337, 323,
5417, 341, 326, 337, 324,
5420, 341, 326, 337, 324,
5422, 341, 327, 337, 323,
5425, 341, 326, 337, 323,
5427, 340, 326, 337, 323,
5429, 341, 328, 337, 324,
5432, 341, 326, 337, 323,
5434, 341, 326, 338, 323,
5436, 341, 326, 337, 322,
5439, 340, 327, 337, 322,
5441, 341, 326, 337, 323,
5443, 340, 326, 337, 323,
5446, 340, 327, 338, 322,
5448, 340, 327, 338, 322,
5450, 340, 326, 337, 323,
5453, 340, 326, 337, 322,
5455, 340, 326, 338, 322,
5457, 339, 326, 338, 322,
5460, 340, 327, 337, 323,
5463, 340, 326, 337, 324,
5465, 339, 326, 337, 322,
5468, 339, 326, 337, 322,
5470, 339, 327, 337, 322,
5472, 338, 326, 337, 321,
5475, 339, 326, 336, 322,
5477, 339, 326, 337, 322,
5479, 339, 326, 337, 322,
5482, 339, 326, 336, 322,
5484, 339, 326, 336, 323,
5486, 339, 326, 337, 322,
5489, 338, 326, 336, 321,
5491, 339, 326, 336, 322,
5493, 339, 326, 336, 323,
5495, 338, 326, 336, 322,
5498, 338, 326, 336, 322,
5500, 338, 327, 336, 322,
5502, 337, 326, 336, 322,
5506, 337, 326, 336, 323,
5508, 337, 326, 336, 322,
5510, 337, 326, 336, 322,
5513, 337, 327, 336, 321,
5515, 337, 327, 336, 321,
5517, 337, 327, 335, 322,
5520, 337, 327, 335, 322,
5522, 337, 327, 335, 321,
5524, 337, 327, 335, 321,
5527, 337, 327, 335, 322,
5529, 337, 326, 334, 322,
5531, 336, 327, 334, 322,
5534, 337, 326, 335, 321,
5536, 337, 327, 334, 322,
5538, 337, 327, 334, 321,
5541, 336, 327, 334, 321,
5543, 337, 327, 335, 321,
5545, 337, 327, 334, 321,
5549, 336, 326, 334, 322,
5551, 337, 326, 334, 322,
5553, 337, 326, 334, 321,
5556, 336, 326, 334, 320,
5558, 336, 327, 334, 321,
5560, 337, 327, 334, 322,
5563, 337, 327, 334, 321,
5565, 336, 326, 333, 321,
5567, 336, 326, 334, 321,
5570, 336, 327, 333, 322,
5572, 337, 327, 333, 321,
5574, 336, 327, 333, 322,
5577, 337, 327, 332, 322,
5579, 335, 328, 333, 321,
5581, 337, 327, 333, 322,
5583, 336, 327, 333, 321,
5586, 336, 327, 333, 321,
5588, 336, 327, 334, 321,
5591, 337, 328, 333, 321,
5594, 337, 327, 332, 322,
5596, 337, 327, 333, 321,
5598, 336, 327, 332, 321,
5601, 336, 328, 332, 321,
5603, 336, 327, 332, 322,
5605, 336, 327, 333, 322,
5608, 336, 327, 333, 322,
5610, 336, 327, 332, 322,
5612, 336, 327, 332, 322,
5615, 336, 327, 332, 323,
5617, 336, 327, 333, 322,
5619, 336, 327, 333, 322,
5622, 336, 327, 333, 322,
5624, 336, 328, 333, 322,
5626, 336, 327, 333, 323,
5629, 336, 327, 332, 326,
5632, 336, 328, 333, 322,
5634, 337, 328, 332, 322,
5637, 336, 327, 332, 323,
5639, 336, 327, 332, 323,
5641, 336, 327, 333, 323,
5644, 336, 326, 333, 322,
5646, 337, 328, 335, 323,
5648, 336, 328, 332, 324,
5651, 336, 328, 332, 324,
5653, 336, 327, 333, 323,
5655, 337, 328, 332, 323,
5658, 337, 327, 332, 324,
5660, 337, 327, 332, 324,
5662, 337, 327, 332, 323,
5665, 337, 327, 332, 324,
5667, 336, 327, 332, 323,
5669, 336, 327, 332, 324,
5671, 336, 327, 333, 323,
5675, 336, 327, 333, 324,
5677, 336, 328, 333, 324,
5679, 339, 328, 332, 324,
5682, 337, 327, 332, 324,
5684, 336, 327, 333, 324,
5686, 335, 328, 333, 324,
5689, 336, 328, 332, 324,
5691, 336, 328, 332, 324,
5693, 336, 327, 333, 324,
5696, 336, 327, 332, 323,
5698, 336, 328, 333, 324,
5700, 336, 328, 332, 323,
5703, 336, 327, 332, 325,
5705, 336, 327, 333, 324,
5707, 336, 327, 332, 324,
5710, 336, 328, 332, 324,
5712, 336, 328, 332, 325,
5714, 336, 327, 332, 325,
5718, 336, 327, 334, 325,
5720, 336, 326, 334, 325,
5722, 336, 327, 333, 325,
5725, 336, 327, 332, 325,
5727, 335, 327, 332, 325,
5729, 336, 327, 334, 325,
5732, 336, 328, 333, 324,
5734, 335, 328, 333, 326,
5736, 335, 328, 333, 325,
5739, 335, 327, 333, 325,
5741, 335, 327, 333, 324,
5743, 335, 328, 333, 324,
5746, 335, 327, 332, 325,
5748, 335, 327, 332, 325,
5750, 335, 326, 334, 325,
5753, 336, 327, 333, 326,
5755, 335, 328, 333, 326,
5757, 335, 327, 332, 326,
5760, 334, 328, 333, 325,
5763, 335, 327, 333, 325,
5765, 335, 327, 333, 326,
5767, 334, 328, 332, 327,
5770, 334, 327, 333, 325,
5772, 335, 327, 333, 325,
5774, 334, 327, 333, 326,
5777, 334, 328, 333, 326,
5779, 334, 327, 333, 326,
5781, 334, 327, 333, 326,
5784, 334, 328, 334, 326,
5786, 335, 327, 333, 326,
5788, 334, 327, 333, 327,
5791, 334, 327, 333, 326,
5793, 334, 328, 333, 327,
5795, 334, 328, 333, 326,
5798, 334, 328, 333, 327,
5800, 334, 327, 333, 327,
5803, 333, 327, 333, 327,
5806, 334, 327, 334, 329,
5808, 334, 327, 333, 326,
5810, 334, 327, 333, 326,
5813, 334, 327, 334, 327,
5815, 334, 327, 334, 326,
5817, 333, 327, 334, 326,
5820, 334, 328, 334, 327,
5822, 334, 327, 337, 328,
5824, 333, 327, 334, 327,
5827, 332, 326, 334, 327,
5829, 333, 327, 334, 327,
5831, 333, 327, 334, 328,
5834, 333, 327, 334, 328,
5836, 333, 327, 334, 328,
5838, 333, 329, 335, 328,
5840, 333, 327, 334, 328,
5843, 334, 327, 334, 329,
5846, 333, 326, 335, 328,
5848, 333, 327, 335, 327,
5851, 333, 328, 334, 328,
5853, 333, 327, 334, 327,
5855, 336, 327, 335, 329,
5858, 333, 327, 335, 329,
5860, 332, 327, 334, 328,
5862, 333, 327, 334, 328,
5865, 333, 327, 334, 329,
5867, 333, 326, 334, 329,
5869, 333, 327, 334, 329,
5872, 333, 327, 334, 329,
5874, 334, 327, 334, 330,
5876, 333, 327, 334, 330,
5879, 333, 327, 334, 329,
5881, 333, 327, 334, 329,
5883, 333, 327, 334, 328,
5886, 332, 327, 334, 330,
5889, 333, 327, 334, 329,
5891, 333, 326, 333, 329,
5894, 332, 327, 334, 329,
5896, 333, 327, 334, 329,
5898, 332, 326, 332, 330,
5901, 333, 327, 333, 330,
5903, 332, 326, 333, 330,
5905, 332, 327, 333, 330,
5908, 332, 327, 332, 330,
5910, 333, 326, 332, 330,
5912, 333, 330, 332, 329,
5915, 332, 326, 333, 330,
5917, 332, 327, 332, 330,
5919, 332, 327, 332, 331,
5922, 332, 326, 332, 330,
5924, 332, 326, 332, 330,
5926, 332, 327, 331, 330,
5928, 332, 326, 331, 330,
5932, 332, 326, 332, 331,
5934, 332, 326, 332, 330,
5936, 332, 327, 331, 331,
5939, 332, 327, 331, 330,
5941, 332, 326, 330, 331,
5943, 332, 326, 330, 331,
5946, 332, 327, 330, 331,
5948, 331, 327, 331, 330,
5950, 332, 326, 330, 331,
5953, 332, 327, 330, 330,
5955, 332, 326, 330, 330,
5957, 331, 326, 330, 331,
5960, 332, 327, 330, 329,
5962, 332, 326, 330, 330,
5964, 331, 326, 330, 330,
5967, 331, 326, 329, 330,
5969, 331, 327, 331, 330,
5971, 332, 327, 329, 330,
5975, 331, 326, 329, 331,
5977, 331, 326, 329, 331,
5979, 332, 327, 329, 330,
5982, 331, 327, 330, 331,
5984, 332, 327, 329, 331,
5986, 331, 327, 329, 331,
5989, 331, 326, 329, 331,
5991, 331, 327, 329, 330,
5993, 330, 327, 329, 330,
5996, 331, 327, 329, 331,
5998, 331, 326, 330, 330,
6000, 331, 326, 327, 330,
6003, 331, 326, 328, 330,
6005, 330, 327, 328, 330,
6007, 330, 326, 328, 331,
6010, 330, 326, 328, 329,
6012, 330, 326, 328, 330,
6014, 330, 329, 328, 330,
6017, 330, 326, 328, 330,
6020, 330, 326, 328, 330,
6022, 330, 326, 328, 330,
6024, 330, 326, 328, 329,
6027, 331, 326, 328, 330,
6029, 330, 326, 328, 331,
6031, 331, 326, 327, 331,
6034, 330, 326, 328, 330,
6036, 330, 326, 327, 330,
6038, 331, 326, 327, 330,
6041, 331, 326, 328, 330,
6043, 330, 326, 327, 330,
6045, 331, 327, 327, 330,
6048, 330, 327, 327, 329,
6050, 331, 327, 327, 330,
6052, 330, 326, 327, 330,
6055, 330, 326, 327, 330,
6057, 330, 327, 327, 330,
6060, 329, 327, 326, 331,
6063, 330, 327, 326, 331,
6065, 330, 327, 327, 330,
6067, 329, 327, 326, 330,
6070, 329, 327, 326, 330,
6072, 330, 327, 327, 330,
6074, 330, 327, 326, 330,
6077, 329, 326, 327, 329,
6079, 329, 327, 327, 330,
6081, 330, 327, 327, 329,
6084, 330, 327, 326, 330,
6086, 330, 327, 326, 331,
6088, 330, 326, 326, 330,
6091, 329, 327, 326, 331,
6093, 329, 327, 326, 331,
6095, 330, 327, 326, 331,
6098, 330, 327, 326, 329,
6100, 330, 326, 326, 331,
6103, 330, 327, 326, 331,
6105, 330, 327, 326, 330,
6108, 330, 326, 326, 330,
6110, 330, 327, 326, 329,
6112, 330, 326, 326, 330,
6115, 330, 327, 326, 330,
6117, 330, 326, 325, 330,
6119, 329, 326, 326, 330,
6122, 330, 326, 326, 329,
6124, 330, 327, 325, 329,
6126, 330, 326, 325, 331,
6129, 330, 326, 326, 329,
6131, 330, 326, 325, 330,
6133, 332, 326, 325, 329,
6136, 330, 326, 325, 330,
6138, 329, 326, 325, 330,
6140, 330, 327, 325, 330,
6144, 330, 326, 326, 329,
6146, 329, 327, 325, 330,
6148, 330, 326, 324, 331,
6151, 330, 326, 325, 330,
6153, 330, 326, 324, 330,
6155, 329, 325, 325, 329,
6158, 330, 327, 325, 330,
6160, 330, 326, 325, 330,
6162, 330, 326, 325, 330,
6165, 329, 326, 325, 329,
6167, 329, 326, 325, 329,
6169, 330, 326, 324, 330,
6172, 329, 326, 325, 329,
6174, 329, 326, 325, 329,
6176, 329, 325, 326, 329,
6179, 329, 325, 325, 329,
6181, 330, 326, 324, 330,
6183, 330, 325, 324, 329,
6187, 329, 326, 325, 328,
6189, 329, 326, 325, 329,
6191, 329, 326, 325, 329,
6193, 329, 326, 325, 329,
6196, 329, 327, 325, 329,
6198, 329, 326, 324, 329,
6200, 329, 326, 325, 329,
6203, 329, 326, 323, 331,
6205, 329, 325, 324, 329,
6207, 330, 325, 324, 330,
6210, 329, 325, 324, 329,
6212, 329, 325, 324, 330,
6214, 329, 325, 324, 330,
6217, 329, 325, 324, 329,
6219, 329, 325, 324, 329,
6221, 329, 326, 324, 328,
6224, 329, 326, 324, 330,
6226, 329, 325, 324, 329,
6228, 329, 326, 325, 329,
6232, 329, 326, 324, 329,
6234, 329, 326, 324, 328,
6236, 328, 325, 324, 329,
6239, 329, 324, 323, 329,
6241, 329, 324, 324, 329,
6243, 328, 325, 323, 328,
6246, 329, 325, 323, 329,
6248, 329, 325, 324, 329,
6250, 329, 325, 324, 328,
6253, 329, 325, 324, 328,
6255, 329, 326, 323, 329,
6257, 329, 325, 323, 329,
6260, 329, 325, 322, 331,
6262, 329, 325, 323, 328,
6264, 329, 325, 323, 328,
6267, 329, 325, 323, 329,
6269, 329, 325, 322, 328,
6272, 329, 325, 322, 328,
6275, 329, 325, 323, 328,
6277, 328, 326, 325, 328,
6279, 329, 325, 322, 329,
6281, 329, 324, 323, 328,
6284, 329, 325, 323, 328,
6286, 329, 325, 324, 328,
6288, 329, 325, 324, 328,
6291, 329, 325, 324, 329,
6293, 329, 328, 324, 328,
6295, 328, 325, 324, 328,
6298, 329, 326, 324, 327,
6300, 329, 325, 324, 329,
6302, 329, 324, 325, 328,
6305, 330, 325, 324, 328,
6307, 330, 325, 325, 328,
6309, 332, 325, 324, 327,
6312, 330, 325, 324, 328,
6315, 330, 324, 324, 328,
6317, 330, 325, 323, 328,
6320, 330, 326, 324, 327,
6322, 330, 325, 323, 328,
6324, 330, 324, 322, 328,
6327, 329, 325, 323, 328,
6329, 330, 324, 324, 327,
6331, 330, 325, 323, 328,
6334, 330, 326, 323, 328,
6336, 329, 325, 323, 328,
6338, 330, 326, 323, 329,
6341, 329, 326, 323, 327,
6343, 330, 325, 322, 327,
6345, 330, 324, 322, 328,
6348, 330, 324, 323, 328,
6350, 329, 325, 324, 327,
6352, 330, 326, 324, 327,
6355, 330, 325, 323, 327,
6358, 330, 325, 322, 328,
6360, 330, 325, 322, 328,
6363, 330, 326, 322, 327,
6365, 330, 326, 321, 328,
6367, 330, 326, 321, 328,
6369, 330, 326, 321, 327,
6372, 330, 326, 321, 328,
6374, 329, 326, 321, 327,
6376, 330, 326, 320, 329,
6379, 330, 326, 320, 329,
6381, 330, 326, 320, 328,
6383, 330, 326, 320, 328,
6386, 329, 327, 320, 327,
6388, 330, 326, 319, 329,
6390, 330, 325, 320, 328,
6393, 330, 326, 320, 328,
6395, 330, 325, 319, 328,
6397, 330, 326, 319, 329,
6401, 330, 326, 319, 328,
6403, 330, 326, 319, 328,
6405, 330, 326, 319, 328,
6408, 331, 326, 319, 328,
6410, 330, 326, 319, 330,
6412, 329, 326, 319, 328,
6415, 330, 326, 319, 328,
6417, 330, 327, 318, 328,
6419, 330, 326, 318, 327,
6422, 330, 326, 318, 328,
6424, 330, 326, 319, 328,
6426, 330, 326, 319, 328,
6429, 330, 326, 319, 329,
6431, 331, 326, 319, 329,
6433, 331, 326, 318, 328,
6436, 330, 325, 319, 330,
6438, 330, 325, 319, 328,
6440, 331, 326, 318, 329,
6444, 330, 326, 318, 328,
6446, 330, 326, 318, 328,
6448, 330, 326, 319, 328,
6450, 331, 326, 318, 328,
6453, 330, 326, 321, 328,
6455, 330, 325, 319, 328,
6457, 330, 326, 319, 327,
6460, 330, 326, 318, 327,
6462, 331, 325, 318, 327,
6464, 330, 326, 318, 328,
6467, 331, 326, 318, 328,
6469, 330, 330, 318, 327,
6471, 331, 326, 318, 327,
6474, 330, 326, 318, 328,
6476, 331, 326, 318, 328,
6478, 330, 326, 318, 327,
6481, 330, 325, 319, 327,
6483, 331, 326, 318, 328,
6486, 333, 326, 318, 328,
6489, 331, 326, 318, 327,
6491, 331, 326, 319, 327,
6493, 331, 326, 318, 327,
6496, 330, 326, 318, 326,
6498, 330, 326, 318, 327,
6500, 330, 325, 319, 327,
6503, 330, 326, 319, 327,
6505, 330, 326, 319, 327,
6507, 330, 325, 318, 327,
6510, 330, 326, 318, 327,
6512, 329, 325, 319, 327,
6514, 329, 326, 318, 327,
6517, 330, 326, 318, 327,
6519, 330, 325, 318, 327,
6521, 329, 325, 318, 327,
6524, 329, 325, 319, 326,
6526, 329, 326, 318, 326,
6529, 329, 326, 318, 327,
6532, 329, 325, 318, 326,
6534, 330, 325, 319, 326,
6536, 329, 326, 318, 326,
6538, 330, 326, 318, 327,
6541, 329, 325, 318, 326,
6543, 329, 326, 319, 325,
6545, 329, 326, 319, 326,
6548, 329, 325, 318, 326,
6550, 330, 325, 319, 326,
6552, 329, 325, 318, 326,
6555, 329, 325, 319, 325,
6557, 329, 325, 319, 325,
6559, 329, 325, 318, 326,
6562, 329, 326, 319, 325,
6564, 329, 325, 319, 325,
6566, 328, 326, 319, 325,
6569, 328, 326, 319, 325,
6572, 328, 325, 319, 325,
6574, 329, 325, 320, 326,
6577, 329, 325, 319, 325,
6579, 328, 325, 319, 326,
6581, 329, 326, 319, 325,
6584, 329, 325, 319, 326,
6586, 329, 325, 319, 326,
6588, 327, 325, 319, 324,
6591, 329, 325, 320, 325,
6593, 328, 326, 320, 326,
6595, 328, 325, 320, 327,
6598, 328, 325, 319, 326,
6600, 329, 325, 320, 326,
6602, 327, 326, 320, 325,
6605, 329, 325, 320, 326,
6607, 329, 325, 320, 326,
6609, 328, 325, 320, 326,
6612, 328, 326, 321, 327,
6615, 328, 326, 320, 325,
6617, 328, 326, 321, 327,
6620, 328, 325, 321, 326,
6622, 328, 325, 320, 326,
6624, 328, 326, 320, 326,
6626, 328, 326, 320, 326,
6629, 328, 325, 321, 326,
6631, 328, 325, 320, 326,
6633, 328, 325, 321, 325,
6636, 328, 326, 320, 326,
6638, 328, 325, 320, 327,
6640, 327, 325, 321, 325,
6643, 328, 325, 321, 326,
6645, 327, 326, 320, 326,
6647, 328, 325, 320, 324,
6650, 327, 325, 321, 325,
6652, 328, 325, 321, 325,
6654, 328, 325, 321, 325,
6658, 328, 326, 320, 325,
6660, 328, 325, 320, 326,
6662, 330, 325, 320, 325,
6665, 328, 325, 321, 325,
6667, 328, 325, 322, 325,
6669, 328, 325, 320, 326,
6672, 328, 325, 321, 325,
6674, 328, 324, 320, 326,
6676, 327, 325, 321, 326,
6679, 327, 325, 320, 325,
6681, 327, 326, 321, 327,
6683, 328, 325, 320, 326,
6686, 328, 325, 320, 325,
6688, 328, 326, 321, 326,
6690, 328, 325, 320, 325,
6693, 328, 325, 321, 327,
6695, 328, 325, 321, 326,
6697, 328, 324, 322, 326,
6701, 329, 325, 321, 327,
6703, 328, 326, 321, 326,
6705, 328, 325, 321, 326,
6708, 328, 326, 321, 326,
6710, 328, 325, 322, 326,
6712, 329, 325, 321, 326,
6714, 328, 325, 322, 329,
6717, 328, 325, 322, 326,
6719, 328, 325, 322, 326,
6721, 329, 325, 322, 326,
6724, 329, 325, 322, 325,
6726, 329, 325, 322, 327,
6728, 329, 324, 322, 327,
6731, 328, 325, 325, 326,
6733, 328, 325, 322, 326,
6735, 328, 325, 321, 327,
6738, 329, 325, 322, 327,
6740, 329, 325, 322, 326,
6743, 329, 325, 322, 326,
6746, 330, 326, 322, 327,
6748, 329, 325, 322, 326,
6750, 329, 325, 322, 327,
6753, 329, 325, 322, 327,
6755, 328, 325, 322, 326,
6757, 328, 325, 322, 327,
6760, 329, 325, 322, 327,
6762, 329, 325, 322, 327,
6764, 328, 325, 322, 327,
6767, 329, 325, 322, 327,
6769, 329, 325, 322, 328,
6771, 329, 325, 322, 327,
6774, 329, 324, 322, 327,
6776, 329, 326, 322, 327,
6778, 329, 325, 322, 327,
6781, 329, 325, 322, 327,
6784, 329, 325, 322, 327,
6786, 329, 324, 323, 327,
6789, 329, 325, 322, 327,
6791, 329, 325, 322, 327,
6793, 329, 325, 322, 327,
6796, 329, 325, 322, 327,
6798, 329, 325, 322, 327,
6800, 328, 325, 322, 326,
6802, 329, 325, 322, 327,
6805, 329, 325, 323, 327,
6807, 328, 325, 323, 327,
6809, 328, 325, 322, 328,
6812, 329, 325, 322, 328,
6814, 329, 324, 322, 328,
6816, 328, 325, 323, 327,
6819, 328, 325, 323, 327,
6821, 329, 325, 322, 327,
6823, 328, 325, 322, 328,
6827, 329, 325, 322, 327,
6829, 328, 326, 322, 327,
6831, 328, 324, 322, 327,
6834, 328, 326, 321, 327,
6836, 329, 325, 322, 328,
6838, 329, 324, 322, 328,
6841, 328, 326, 322, 328,
6843, 328, 325, 322, 327,
6845, 328, 325, 321, 328,
6848, 328, 325, 322, 328,
6850, 328, 324, 322, 328,
6852, 328, 326, 322, 328,
6855, 328, 326, 321, 329,
6857, 328, 326, 321, 329,
6859, 327, 325, 322, 328,
6862, 327, 325, 322, 328,
6864, 328, 326, 321, 328,
6866, 326, 325, 321, 330,
6870, 327, 325, 320, 329,
6872, 327, 325, 321, 328,
6874, 327, 326, 321, 328,
6877, 327, 325, 321, 329,
6879, 327, 325, 321, 329,
6881, 327, 325, 321, 328,
6884, 327, 324, 321, 328,
6886, 326, 326, 321, 327,
6888, 326, 325, 320, 329,
6890, 326, 325, 320, 331,
6893, 326, 325, 321, 328,
6895, 326, 326, 320, 328,
6897, 326, 326, 320, 329,
6900, 326, 327, 320, 329,
6902, 326, 326, 320, 328,
6904, 326, 326, 320, 328,
6907, 325, 327, 323, 328,
6909, 326, 326, 319, 329,
6912, 326, 326, 319, 328,
6915, 326, 326, 319, 328,
6917, 326, 326, 319, 328,
6919, 326, 326, 319, 328,
6922, 326, 326, 318, 329,
6924, 326, 328, 319, 329,
6926, 325, 326, 319, 329,
6929, 325, 326, 318, 328,
6931, 325, 326, 318, 329,
6933, 324, 326, 318, 329,
6936, 324, 326, 319, 328,
6938, 324, 326, 319, 328,
6940, 327, 326, 318, 328,
6943, 324, 326, 318, 329,
6945, 324, 326, 318, 329,
6947, 324, 326, 317, 329,
6950, 324, 327, 318, 328,
6952, 323, 327, 318, 329,
6955, 324, 326, 317, 329,
6958, 323, 326, 317, 329,
6960, 323, 326, 317, 328,
6962, 324, 327, 318, 328,
6965, 324, 326, 317, 329,
6967, 324, 326, 317, 329,
6969, 324, 326, 318, 329,
6972, 324, 326, 317, 329,
6974, 323, 327, 317, 330,
6976, 324, 326, 317, 330,
6978, 323, 326, 316, 329,
6981, 323, 326, 317, 330,
6983, 323, 326, 316, 328,
6985, 323, 326, 316, 330,
6988, 323, 326, 317, 330,
6990, 323, 325, 317, 330,
6992, 323, 326, 316, 329,
6995, 322, 327, 316, 329,
6998, 323, 326, 317, 330,
7000, 322, 326, 316, 329,
7003, 322, 325, 316, 329,
7005, 321, 326, 316, 329,
7007, 322, 326, 316, 330,
7010, 322, 326, 315, 329,
7012, 321, 326, 316, 329,
7014, 322, 326, 316, 329,
7017, 322, 326, 316, 329,
7019, 322, 326, 315, 331,
7021, 322, 325, 316, 330,
7024, 321, 326, 315, 330,
7026, 321, 326, 316, 330,
7028, 322, 326, 315, 329,
7031, 321, 326, 315, 330,
7033, 322, 326, 315, 330,
7035, 321, 326, 316, 330,
7038, 322, 326, 316, 330,
7041, 322, 326, 315, 330,
7043, 320, 326, 315, 330,
7046, 321, 326, 316, 329,
7048, 321, 327, 315, 329,
7050, 321, 326, 315, 330,
7053, 321, 326, 315, 330,
7055, 321, 326, 316, 330,
7057, 321, 326, 316, 329,
7059, 321, 326, 315, 329,
7062, 320, 326, 315, 330,
7064, 321, 326, 316, 330,
7066, 320, 325, 315, 331,
7069, 320, 327, 315, 329,
7071, 320, 326, 315, 330,
7073, 321, 326, 314, 330,
7076, 321, 326, 315, 330,
7078, 321, 326, 315, 329,
7080, 321, 326, 315, 329,
7084, 321, 326, 319, 330,
7086, 321, 326, 315, 330,
7088, 321, 326, 315, 330,
7091, 321, 326, 316, 330,
7093, 320, 326, 315, 329,
7095, 321, 326, 314, 331,
7098, 321, 326, 314, 330,
7100, 321, 328, 315, 330,
7102, 320, 326, 314, 329,
7105, 320, 325, 315, 328,
7107, 320, 325, 314, 330,
7109, 320, 325, 314, 329,
7112, 319, 326, 313, 329,
7114, 319, 326, 314, 329,
7116, 322, 325, 313, 330,
7119, 320, 325, 313, 329,
7121, 320, 325, 314, 329,
7123, 320, 324, 313, 329,
7127, 321, 326, 313, 330,
7129, 320, 325, 313, 330,
7131, 320, 325, 312, 329,
7134, 321, 325, 313, 329,
7136, 320, 325, 312, 329,
7138, 320, 325, 313, 329,
7141, 320, 325, 312, 330,
7143, 320, 325, 312, 329,
7145, 320, 325, 311, 330,
7147, 320, 325, 312, 329,
7150, 320, 325, 311, 330,
7152, 319, 324, 312, 329,
7154, 319, 325, 312, 328,
7157, 320, 326, 311, 329,
7159, 320, 325, 311, 329,
7161, 319, 325, 311, 330,
7164, 319, 325, 312, 329,
7166, 320, 326, 312, 329,
7169, 320, 326, 311, 328,
7172, 320, 326, 311, 331,
7174, 319, 326, 311, 329,
7176, 319, 326, 311, 329,
7179, 319, 326, 310, 329,
7181, 319, 326, 310, 328,
7183, 319, 326, 310, 329,
7186, 320, 325, 309, 329,
7188, 319, 326, 309, 329,
7190, 319, 326, 308, 329,
7193, 319, 326, 308, 329,
7195, 319, 326, 308, 329,
7197, 318, 327, 308, 329,
7200, 319, 326, 308, 328,
7202, 318, 327, 308, 328,
7204, 319, 327, 307, 330,
7207, 319, 327, 306, 329,
7209, 319, 326, 306, 329,
7212, 318, 327, 306, 328,
7215, 318, 327, 306, 330,
7217, 318, 327, 305, 328,
7219, 317, 327, 305, 328,
7222, 318, 327, 305, 328,
7224, 318, 328, 304, 328,
7226, 318, 327, 304, 329,
7229, 318, 326, 303, 328,
7231, 318, 326, 303, 328,
7233, 318, 327, 303, 328,
7235, 318, 327, 302, 328,
7238, 318, 327, 302, 329,
7240, 318, 327, 301, 328,
7242, 317, 326, 301, 329,
7245, 317, 327, 301, 327,
7247, 317, 327, 300, 329,
7249, 316, 326, 300, 328,
7252, 316, 327, 300, 328,
7255, 316, 327, 299, 328,
7257, 316, 327, 299, 327,
7260, 316, 327, 300, 328,
7262, 316, 327, 299, 328,
7264, 316, 327, 298, 328,
7267, 316, 327, 299, 327,
7269, 316, 328, 298, 328,
7271, 315, 327, 297, 327,
7274, 315, 327, 298, 327,
7276, 315, 331, 297, 326,
7278, 316, 327, 296, 327,
7281, 315, 327, 296, 328,
7283, 315, 327, 295, 327,
7285, 315, 327, 295, 327,
7288, 314, 327, 294, 327,
7290, 313, 328, 294, 327,
7292, 318, 327, 294, 327,
7296, 314, 327, 293, 327,
7298, 313, 328, 293, 327,
7300, 313, 328, 292, 326,
7303, 314, 327, 291, 328,
7305, 314, 326, 290, 328,
7307, 314, 327, 290, 327,
7310, 314, 327, 289, 328,
7312, 314, 327, 288, 328,
7314, 313, 327, 287, 328,
7317, 311, 327, 286, 328,
7319, 311, 326, 286, 327,
7321, 309, 326, 284, 328,
7323, 311, 327, 283, 327,
7326, 311, 326, 282, 327,
7328, 310, 326, 281, 327,
7330, 309, 327, 280, 327,
7333, 309, 327, 279, 328,
7335, 309, 326, 277, 327,
7337, 311, 326, 277, 327,
7341, 309, 326, 276, 327,
7343, 308, 326, 274, 327,
7345, 309, 326, 273, 328,
7348, 309, 326, 272, 327,
7350, 307, 324, 271, 327,
7352, 306, 326, 269, 327,
7355, 306, 326, 268, 327,
7357, 306, 326, 266, 327,
7359, 306, 326, 265, 326,
7362, 306, 325, 265, 327,
7364, 306, 326, 263, 326,
7366, 306, 326, 261, 325,
7369, 307, 325, 260, 327,
7371, 306, 325, 258, 327,
7373, 307, 325, 257, 326,
7376, 306, 326, 256, 326,
7378, 305, 325, 254, 325,
7380, 304, 325, 253, 326,
7384, 303, 324, 252, 326,
7386, 302, 325, 251, 326,
7388, 304, 325, 249, 327,
7391, 304, 325, 248, 327,
7393, 305, 325, 246, 327,
7395, 305, 325, 246, 326,
7398, 305, 325, 244, 327,
7400, 304, 325, 242, 329,
7402, 304, 325, 241, 328,
7405, 303, 325, 241, 327,
7407, 302, 324, 239, 327,
7409, 303, 325, 238, 327,
7411, 303, 325, 236, 328,
7414, 302, 324, 236, 328,
7416, 301, 324, 234, 328,
7418, 300, 325, 233, 328,
7421, 299, 325, 232, 328,
7424, 300, 324, 230, 328,
7426, 300, 325, 229, 328,
7429, 302, 324, 228, 328,
7431, 303, 324, 227, 328,
7433, 302, 324, 226, 329,
7436, 301, 324, 224, 327,
7438, 300, 324, 224, 327,
7440, 300, 324, 222, 327,
7443, 300, 324, 221, 326,
7445, 300, 323, 220, 328,
7447, 300, 323, 219, 325,
7450, 300, 324, 218, 327,
7452, 300, 324, 217, 327,
7454, 299, 323, 215, 328,
7457, 299, 323, 214, 328,
7459, 299, 323, 213, 327,
7461, 300, 324, 212, 327,
7464, 300, 324, 208, 328,
7467, 300, 323, 210, 328,
7469, 300, 323, 208, 328,
7472, 300, 323, 208, 327,
7474, 299, 324, 207, 327,
7476, 299, 323, 205, 329,
7479, 299, 323, 204, 328,
7481, 299, 321, 202, 327,
7483, 299, 323, 203, 328,
7486, 299, 322, 201, 328,
7488, 299, 323, 200, 328,
7490, 298, 322, 200, 328,
7493, 298, 323, 199, 327,
7495, 298, 323, 198, 326,
7497, 297, 323, 197, 326,
7499, 296, 322, 196, 326,
7502, 297, 322, 195, 327,
7504, 298, 322, 195, 327,
7506, 299, 323, 193, 328,
7510, 299, 323, 193, 328,
7512, 299, 322, 191, 328,
7514, 299, 323, 191, 327,
7517, 298, 322, 190, 327,
7519, 300, 322, 189, 327,
7521, 300, 321, 189, 332,
7524, 300, 322, 187, 328,
7526, 299, 322, 187, 328,
7528, 300, 322, 186, 328,
7531, 300, 322, 185, 329,
7533, 300, 322, 185, 329,
7535, 299, 322, 184, 328,
7538, 300, 321, 186, 328,
7540, 300, 322, 183, 329,
7542, 302, 322, 182, 329,
7545, 300, 321, 182, 328,
7547, 300, 321, 183, 327,
7549, 301, 322, 181, 327,
7553, 300, 322, 181, 328,
7555, 301, 325, 181, 328,
7557, 301, 322, 180, 328,
7560, 300, 322, 181, 328,
7562, 300, 323, 180, 327,
7564, 300, 322, 180, 328,
7567, 300, 322, 180, 328,
7569, 299, 321, 181, 328,
7571, 304, 321, 181, 326,
7574, 301, 322, 180, 328,
7576, 301, 322, 180, 328,
7578, 300, 321, 182, 327,
7581, 300, 322, 181, 326,
7583, 301, 322, 182, 328,
7585, 300, 322, 181, 327,
7587, 301, 322, 182, 327,
7590, 301, 322, 182, 327,
7592, 302, 322, 183, 327,
7595, 302, 322, 183, 327,
7598, 302, 322, 184, 327,
7600, 302, 322, 184, 327,
7602, 302, 322, 185, 327,
7605, 302, 323, 185, 326,
7607, 302, 322, 185, 327,
7609, 302, 321, 186, 327,
7612, 303, 322, 188, 327,
7614, 303, 322, 188, 327,
7616, 303, 321, 189, 327,
7619, 302, 322, 190, 327,
7621, 303, 322, 191, 327,
7623, 303, 322, 192, 326,
7626, 303, 321, 193, 326,
7628, 303, 322, 194, 327,
7630, 303, 321, 195, 327,
7633, 303, 322, 196, 326,
7635, 303, 322, 197, 326,
7638, 303, 322, 198, 326,
7641, 303, 322, 199, 326,
7643, 304, 322, 201, 326,
7645, 305, 320, 202, 326,
7648, 304, 323, 204, 326,
7650, 304, 323, 205, 326,
7652, 305, 322, 206, 327,
7655, 305, 321, 208, 326,
7657, 305, 321, 209, 326,
7659, 306, 323, 211, 326,
7662, 305, 322, 212, 326,
7664, 305, 322, 214, 326,
7666, 305, 322, 216, 326,
7668, 306, 322, 217, 326,
7671, 305, 323, 219, 325,
7673, 305, 322, 221, 326,
7675, 306, 322, 224, 326,
7678, 306, 323, 225, 325,
7681, 306, 323, 227, 325,
7683, 306, 322, 229, 326,
7686, 307, 323, 231, 326,
7688, 307, 323, 233, 326,
7690, 307, 323, 236, 325,
7693, 308, 323, 237, 326,
7695, 308, 323, 239, 326,
7697, 307, 323, 242, 328,
7700, 308, 323, 245, 325,
7702, 307, 323, 246, 325,
7704, 308, 323, 248, 326,
7707, 310, 324, 250, 325,
7709, 309, 322, 252, 325,
7711, 310, 324, 254, 325,
7714, 309, 323, 260, 325,
7716, 309, 323, 258, 325,
7718, 309, 323, 260, 325,
7721, 309, 322, 262, 325,
7724, 309, 324, 264, 325,
7726, 310, 323, 265, 326,
7729, 311, 323, 267, 325,
7731, 310, 324, 269, 325,
7733, 310, 323, 272, 325,
7736, 310, 324, 274, 326,
7738, 311, 323, 274, 327,
7740, 311, 323, 276, 325,
7743, 312, 323, 277, 323,
7745, 311, 323, 280, 324,
7747, 314, 324, 282, 324,
7750, 311, 322, 284, 325,
7752, 312, 323, 285, 325,
7754, 312, 323, 287, 325,
7756, 313, 323, 288, 325,
7759, 313, 322, 289, 325,
7761, 313, 322, 291, 325,
7763, 313, 323, 293, 324,
7767, 313, 322, 294, 324,
7769, 314, 323, 296, 325,
7771, 313, 323, 296, 325,
7774, 313, 323, 299, 325,
7776, 314, 324, 300, 324,
7778, 316, 324, 301, 324,
7781, 315, 324, 302, 325,
7783, 314, 323, 304, 325,
7785, 314, 323, 305, 324,
7788, 314, 324, 306, 325,
7790, 314, 324, 307, 324,
7792, 314, 324, 308, 325,
7795, 314, 324, 309, 325,
7797, 314, 324, 311, 324,
7799, 316, 324, 312, 324,
7802, 316, 324, 312, 325,
7804, 316, 325, 314, 325,
7806, 315, 325, 315, 324,
7810, 315, 324, 317, 324,
7812, 316, 325, 317, 324,
7814, 316, 324, 318, 325,
7817, 317, 324, 319, 324,
7819, 317, 324, 319, 324,
7821, 317, 324, 322, 324,
7824, 317, 325, 323, 324,
7826, 318, 325, 324, 324,
7828, 318, 324, 324, 324,
7831, 317, 324, 325, 324,
7833, 317, 325, 326, 323,
7835, 318, 324, 327, 325,
7838, 317, 324, 328, 324,
7840, 317, 324, 329, 324,
7842, 318, 324, 331, 323,
7844, 318, 324, 331, 325,
7847, 318, 324, 332, 325,
7849, 317, 324, 333, 324,
7852, 317, 325, 335, 323,
7855, 317, 324, 335, 323,
7857, 318, 325, 336, 324,
7859, 318, 324, 337, 324,
7862, 319, 325, 339, 324,
7864, 318, 325, 339, 323,
7866, 319, 325, 339, 323,
7869, 319, 324, 340, 324,
7871, 319, 324, 341, 323,
7873, 319, 324, 342, 324,
7876, 320, 325, 343, 323,
7878, 321, 325, 344, 323,
7880, 320, 324, 344, 323,
7883, 320, 324, 346, 323,
7885, 320, 325, 347, 323,
7887, 320, 325, 347, 323,
7890, 320, 325, 350, 323,
7892, 320, 325, 348, 323,
7895, 320, 325, 350, 323,
7898, 320, 326, 350, 323,
7900, 320, 325, 351, 322,
7902, 321, 325, 352, 322,
7905, 320, 325, 352, 323,
7907, 320, 326, 353, 323,
7909, 320, 326, 354, 323,
7912, 321, 325, 355, 324,
7914, 322, 325, 356, 323,
7916, 321, 325, 357, 323,
7919, 321, 325, 357, 323,
7921, 322, 325, 358, 324,
7923, 324, 325, 359, 324,
7926, 320, 325, 360, 323,
7928, 321, 325, 361, 323,
7930, 321, 325, 362, 322,
7932, 321, 325, 362, 324,
7936, 322, 324, 364, 323,
7938, 321, 324, 364, 323,
7940, 320, 325, 366, 324,
7943, 320, 326, 367, 322,
7945, 321, 324, 368, 324,
7947, 321, 324, 370, 323,
7950, 322, 324, 371, 323,
7952, 320, 325, 373, 323,
7954, 321, 325, 374, 324,
7957, 321, 326, 376, 324,
7959, 322, 326, 378, 323,
7961, 321, 325, 380, 323,
7964, 322, 325, 381, 323,
7966, 322, 325, 382, 325,
7968, 321, 325, 384, 324,
7971, 323, 325, 384, 323,
7973, 322, 326, 387, 323,
7975, 322, 325, 388, 328,
7979, 321, 325, 389, 324,
7981, 321, 325, 390, 324,
7983, 322, 325, 392, 323,
7986, 322, 326, 393, 323,
7988, 322, 325, 394, 324,
7990, 323, 325, 395, 324,
7993, 322, 325, 397, 323,
7995, 323, 324, 398, 323,
7997, 324, 324, 399, 324,
8000, 323, 325, 398, 324,
8002, 323, 325, 400, 324,
8004, 323, 324, 401, 323,
8007, 324, 324, 401, 324,
8009, 323, 327, 401, 325,
8011, 323, 324, 402, 324,
8014, 322, 324, 403, 324,
8016, 322, 325, 404, 324,
8018, 324, 325, 404, 324,
8020, 323, 324, 404, 324,
8024, 324, 325, 405, 324,
8026, 323, 325, 405, 325,
8028, 322, 325, 406, 324,
8031, 323, 324, 406, 325,
8033, 324, 324, 406, 324,
8035, 324, 325, 406, 323,
8038, 325, 324, 406, 324,
8040, 325, 325, 406, 324,
8042, 323, 324, 406, 325,
8045, 324, 324, 406, 324,
8047, 325, 324, 406, 324,
8049, 325, 325, 406, 324,
8052, 324, 325, 406, 323,
8054, 325, 325, 405, 324,
8056, 324, 324, 406, 324,
8059, 324, 324, 406, 324,
8061, 323, 326, 405, 324,
8064, 324, 324, 404, 325,
8067, 325, 325, 405, 325,
8069, 325, 324, 405, 324,
8071, 328, 325, 405, 324,
8074, 326, 324, 405, 325,
8076, 325, 324, 404, 325,
8078, 325, 324, 404, 323,
8081, 325, 323, 405, 324,
8083, 323, 325, 404, 325,
8085, 323, 325, 403, 324,
8088, 324, 325, 402, 325,
8090, 325, 325, 402, 324,
8092, 326, 326, 402, 324,
8095, 326, 326, 400, 324,
8097, 326, 325, 400, 325,
8099, 326, 325, 400, 325,
8102, 326, 325, 400, 324,
8104, 326, 326, 400, 324,
8107, 327, 326, 399, 325,
8109, 326, 326, 398, 324,
8112, 325, 325, 398, 324,
8114, 326, 325, 398, 324,
8116, 326, 325, 398, 325,
8119, 327, 326, 398, 326,
8121, 328, 325, 398, 325,
8123, 327, 326, 398, 324,
8126, 327, 326, 398, 324,
8128, 326, 326, 398, 326,
8130, 328, 326, 397, 325,
8133, 328, 325, 396, 325,
8135, 328, 325, 396, 324,
8137, 329, 325, 396, 324,
8140, 330, 324, 396, 325,
8142, 330, 324, 395, 325,
8144, 330, 325, 395, 324,
8147, 329, 324, 396, 324,
8150, 329, 326, 394, 325,
8152, 328, 325, 394, 329,
8155, 328, 325, 393, 324,
8157, 329, 326, 394, 324,
8159, 330, 326, 393, 324,
8162, 330, 326, 394, 325,
8164, 331, 326, 394, 324,
8166, 331, 325, 394, 324,
8169, 330, 326, 393, 324,
8171, 330, 327, 394, 324,
8173, 330, 325, 393, 325,
8176, 331, 325, 393, 324,
8178, 331, 324, 393, 324,
8180, 332, 324, 393, 324,
8183, 332, 322, 392, 324,
8185, 332, 326, 393, 324,
8187, 332, 323, 392, 324,
8190, 333, 324, 392, 324,
8193, 333, 325, 392, 323,
8195, 332, 325, 391, 325,
8197, 332, 324, 392, 324,
8200, 333, 325, 392, 324,
8202, 335, 326, 391, 324,
8204, 332, 326, 391, 324,
8207, 331, 326, 391, 325,
8209, 333, 326, 391, 324,
8211, 334, 326, 390, 324,
8214, 334, 327, 389, 323,
8216, 334, 326, 389, 325,
8218, 333, 326, 389, 325,
8221, 333, 326, 390, 324,
8223, 333, 326, 389, 324,
8225, 333, 326, 389, 325,
8228, 335, 326, 388, 326,
8230, 335, 325, 389, 325,
8232, 335, 326, 389, 324,
8236, 335, 326, 389, 324,
8238, 335, 327, 389, 324,
8240, 336, 326, 389, 325,
8243, 337, 325, 390, 327,
8245, 338, 325, 390, 324,
8247, 337, 325, 389, 324,
8250, 338, 325, 389, 324,
8252, 338, 325, 389, 324,
8254, 338, 326, 389, 323,
8257, 338, 326, 388, 325,
8259, 338, 326, 387, 325,
8261, 338, 326, 387, 325,
8264, 338, 325, 387, 324,
8266, 338, 326, 387, 324,
8268, 338, 327, 386, 324,
8271, 338, 326, 386, 324,
8273, 337, 326, 386, 324,
8275, 337, 327, 386, 324,
8278, 337, 327, 386, 325,
8281, 338, 327, 385, 324,
8283, 339, 326, 385, 325,
8285, 338, 327, 386, 324,
8288, 338, 326, 386, 324,
8290, 339, 327, 387, 324,
8292, 341, 326, 387, 325,
8295, 341, 327, 387, 325,
8297, 341, 327, 388, 325,
8299, 341, 327, 388, 324,
8302, 342, 327, 387, 325,
8304, 341, 326, 387, 325,
8306, 342, 327, 387, 325,
8309, 342, 327, 387, 324,
8311, 341, 327, 387, 324,
8313, 342, 326, 387, 324,
8316, 341, 325, 387, 324,
8318, 342, 324, 386, 324,
8321, 342, 324, 387, 324,
8324, 342, 325, 387, 324,
8326, 342, 325, 387, 325,
8328, 342, 325, 388, 329,
8331, 340, 326, 387, 324,
8333, 341, 326, 387, 326,
8335, 341, 327, 386, 325,
8338, 342, 327, 386, 325,
8340, 341, 327, 385, 324,
8342, 342, 327, 386, 324,
8345, 343, 328, 388, 325,
8347, 342, 327, 385, 326,
8349, 342, 327, 386, 325,
8352, 342, 327, 384, 324,
8354, 342, 327, 384, 324,
8356, 342, 328, 385, 323,
8359, 343, 327, 384, 325,
8361, 343, 329, 384, 325,
8364, 342, 327, 385, 325,
8366, 343, 327, 385, 325,
8369, 343, 327, 384, 326,
8371, 343, 327, 384, 325,
8373, 342, 328, 384, 325,
8376, 343, 326, 385, 325,
8378, 346, 328, 384, 325,
8380, 343, 327, 383, 326,
8383, 343, 327, 383, 325,
8385, 343, 327, 382, 325,
8387, 343, 327, 381, 325,
8390, 341, 326, 381, 326,
8392, 342, 326, 381, 325,
8394, 342, 327, 381, 325,
8397, 342, 327, 381, 325,
8399, 342, 327, 380, 325,
8401, 341, 327, 378, 325,
8404, 342, 327, 379, 325,
8407, 342, 327, 378, 325,
8409, 343, 327, 377, 325,
8412, 343, 327, 377, 326,
8414, 342, 327, 377, 326,
8416, 341, 328, 376, 325,
8419, 342, 327, 376, 325,
8421, 342, 327, 376, 324,
8423, 342, 327, 375, 324,
8426, 343, 326, 374, 325,
8428, 343, 326, 374, 324,
8430, 342, 327, 374, 324,
8433, 342, 326, 374, 325,
8435, 343, 325, 373, 324,
8437, 343, 325, 372, 324,
8440, 343, 324, 372, 324,
8442, 342, 326, 371, 323,
8444, 342, 326, 371, 324,
8448, 342, 326, 369, 323,
8450, 342, 327, 371, 324,
8452, 342, 326, 371, 324,
8454, 342, 327, 369, 324,
8457, 342, 327, 369, 325,
8459, 342, 327, 369, 323,
8461, 342, 327, 368, 323,
8464, 342, 327, 367, 324,
8466, 342, 327, 367, 322,
8468, 341, 327, 367, 323,
8471, 342, 327, 367, 323,
8473, 342, 327, 367, 323,
8475, 343, 327, 366, 323,
8478, 342, 327, 364, 324,
8480, 342, 327, 365, 324,
8482, 341, 326, 365, 323,
8485, 342, 326, 366, 322,
8487, 343, 326, 364, 323,
8489, 342, 326, 364, 323,
8493, 342, 326, 363, 323,
8495, 342, 326, 363, 322,
8497, 342, 327, 361, 322,
8500, 341, 327, 361, 324,
8502, 341, 326, 362, 322,
8504, 341, 326, 362, 323,
8507, 341, 327, 362, 322,
8509, 341, 325, 361, 322,
8511, 342, 325, 361, 322,
8514, 342, 325, 361, 322,
8516, 341, 324, 362, 322,
8518, 341, 326, 361, 321,
8521, 341, 326, 362, 322,
8523, 341, 326, 360, 321,
8525, 341, 326, 360, 322,
8528, 340, 325, 360, 321,
8530, 342, 326, 360, 322,
8532, 341, 326, 361, 321,
8536, 340, 325, 361, 321,
8538, 341, 327, 361, 321,
8540, 340, 326, 360, 321,
8542, 341, 326, 359, 322,
8545, 341, 325, 360, 322,
8547, 341, 325, 360, 321,
8549, 341, 325, 359, 321,
8552, 341, 325, 359, 321,
8554, 341, 325, 359, 321,
8556, 341, 325, 358, 321,
8559, 341, 325, 359, 321,
8561, 341, 325, 359, 321,
8563, 341, 324, 358, 322,
8566, 341, 324, 361, 320,
8568, 340, 326, 359, 321,
8570, 341, 326, 359, 321,
8573, 340, 326, 359, 321,
8576, 340, 325, 358, 323,
8578, 340, 325, 358, 321,
8581, 340, 324, 358, 321,
8583, 338, 325, 359, 321,
8585, 340, 324, 359, 321,
8588, 340, 324, 359, 322,
8590, 340, 324, 359, 321,
8592, 340, 325, 359, 321,
8595, 340, 326, 359, 321,
8597, 341, 326, 358, 322,
8599, 340, 326, 358, 321,
8602, 339, 325, 358, 321,
8604, 339, 325, 359, 321,
8606, 340, 327, 358, 324,
8609, 340, 326, 358, 322,
8611, 340, 326, 358, 322,
8613, 340, 325, 358, 322,
8616, 340, 326, 359, 322,
8619, 339, 326, 359, 321,
8621, 340, 326, 359, 322,
8624, 339, 325, 360, 322,
8626, 339, 326, 359, 322,
8628, 339, 325, 359, 322,
8630, 339, 324, 357, 323,
8633, 339, 324, 358, 323,
8635, 339, 324, 358, 323,
8637, 340, 325, 358, 322,
8640, 340, 327, 358, 322,
8642, 339, 326, 358, 322,
8644, 339, 326, 358, 323,
8647, 339, 326, 359, 322,
8649, 338, 326, 358, 322,
8651, 339, 326, 358, 322,
8654, 339, 325, 358, 323,
8656, 339, 324, 358, 322,
8658, 339, 324, 359, 322,
8662, 338, 325, 360, 322,
8664, 339, 324, 359, 323,
8666, 339, 325, 360, 323,
8669, 339, 324, 359, 322,
8671, 338, 325, 359, 322,
8673, 339, 325, 359, 322,
8676, 339, 325, 358, 323,
8678, 339, 325, 358, 323,
8680, 338, 325, 358, 323,
8683, 340, 326, 359, 323,
8685, 339, 325, 359, 323,
8687, 339, 325, 359, 323,
8690, 339, 325, 359, 322,
8692, 339, 326, 360, 323,
8694, 339, 326, 359, 322,
8697, 340, 325, 359, 324,
8699, 339, 325, 359, 323,
8701, 340, 325, 358, 323,
8705, 340, 325, 358, 324,
8707, 340, 325, 360, 324,
8709, 340, 325, 360, 323,
8712, 339, 326, 360, 322,
8714, 340, 326, 358, 325,
8716, 340, 326, 358, 324,
8718, 339, 325, 358, 324,
8721, 339, 325, 359, 323,
8723, 340, 325, 358, 323,
8725, 340, 324, 357, 323,
8728, 340, 325, 358, 324,
8730, 340, 325, 359, 324,
8732, 339, 325, 360, 323,
8735, 340, 326, 359, 323,
8737, 340, 326, 359, 323,
8739, 340, 325, 358, 324,
8742, 340, 323, 358, 323,
8744, 340, 324, 358, 323,
8747, 340, 325, 358, 323,
8750, 341, 325, 358, 324,
8752, 341, 325, 358, 324,
8754, 340, 326, 358, 323,
8757, 340, 325, 358, 323,
8759, 340, 326, 358, 324,
8761, 341, 325, 357, 325,
8764, 341, 326, 356, 324,
8766, 341, 325, 356, 324,
8768, 341, 325, 357, 323,
8771, 341, 325, 358, 324,
8773, 341, 325, 357, 324,
8775, 341, 325, 357, 324,
8778, 340, 326, 358, 323,
8780, 340, 326, 357, 323,
8782, 341, 325, 356, 326,
8785, 341, 325, 356, 323,
8787, 341, 326, 356, 323,
8790, 341, 326, 357, 323,
8793, 341, 326, 356, 323,
8795, 341, 326, 357, 324,
8797, 340, 326, 356, 323,
8800, 340, 326, 359, 323,
8802, 339, 326, 356, 323,
8804, 340, 324, 355, 324,
8806, 340, 323, 356, 323,
8809, 340, 323, 356, 323,
8811, 340, 325, 356, 321,
8813, 340, 325, 356, 322,
8816, 340, 328, 356, 322,
8818, 340, 325, 356, 323,
8820, 339, 325, 355, 323,
8823, 339, 326, 356, 323,
8825, 340, 325, 355, 323,
8827, 339, 325, 354, 323,
8830, 339, 325, 356, 323,
8833, 342, 326, 355, 323,
8835, 339, 325, 355, 323,
8838, 340, 326, 356, 324,
8840, 339, 325, 356, 323,
8842, 340, 325, 355, 323,
8845, 340, 325, 355, 323,
8847, 339, 325, 356, 321,
8849, 339, 325, 356, 323,
8852, 339, 324, 356, 322,
8854, 339, 324, 355, 322,
8856, 339, 323, 354, 322,
8859, 339, 322, 355, 323,
8861, 339, 322, 355, 322,
8863, 338, 323, 354, 322,
8866, 338, 324, 351, 322,
8868, 339, 325, 352, 323,
8870, 338, 325, 353, 323,
8873, 338, 325, 354, 323,
8876, 338, 325, 354, 322,
8878, 337, 326, 354, 322,
8881, 337, 325, 354, 323,
8883, 337, 325, 354, 323,
8885, 337, 325, 354, 322,
8887, 337, 325, 354, 323,
8890, 337, 325, 354, 322,
8892, 337, 325, 353, 323,
8894, 337, 325, 353, 322,
8897, 336, 324, 352, 322,
8899, 336, 325, 352, 322,
8901, 337, 325, 351, 323,
8904, 336, 325, 353, 323,
8906, 336, 325, 354, 322,
8908, 335, 325, 354, 322,
8911, 336, 325, 353, 322,
8913, 336, 325, 353, 324,
8915, 336, 324, 353, 322,
8919, 336, 323, 353, 322,
8921, 336, 325, 352, 322,
8923, 336, 323, 352, 321,
8926, 336, 322, 352, 323,
8928, 336, 322, 353, 323,
8930, 336, 324, 353, 322,
8933, 336, 325, 353, 322,
8935, 336, 325, 353, 323,
8937, 336, 324, 352, 323,
8940, 335, 325, 353, 323,
8942, 336, 324, 353, 323,
8944, 336, 325, 352, 324,
8947, 336, 325, 352, 323,
8949, 336, 325, 351, 323,
8951, 335, 325, 353, 323,
8954, 335, 325, 352, 322,
8956, 335, 325, 352, 323,
8958, 336, 325, 352, 323,
8962, 335, 325, 352, 323,
8964, 335, 325, 353, 322,
8966, 336, 326, 352, 322,
8969, 336, 325, 352, 323,
8971, 336, 325, 352, 323,
8973, 335, 325, 352, 323,
8975, 336, 325, 352, 323,
8978, 336, 325, 351, 324,
8980, 337, 326, 352, 324,
8982, 335, 326, 351, 323,
8985, 335, 325, 351, 323,
8987, 335, 325, 351, 322,
8989, 335, 325, 351, 325,
8992, 335, 327, 350, 324,
8994, 336, 324, 350, 323,
8996, 335, 324, 349, 323,
8999, 335, 324, 349, 322,
9001, 335, 323, 349, 323,
9004, 335, 322, 348, 322,
9007, 335, 323, 349, 323,
9009, 336, 324, 348, 322,
9011, 335, 324, 348, 323,
9014, 335, 325, 348, 323,
9016, 335, 326, 349, 323,
9018, 335, 326, 349, 323,
9021, 335, 327, 349, 323,
9023, 335, 327, 348, 324,
9025, 335, 327, 348, 323,
9028, 334, 326, 349, 322,
9030, 334, 327, 348, 322,
9032, 334, 327, 347, 323,
9035, 334, 327, 346, 323,
9037, 333, 327, 348, 323,
9039, 334, 327, 347, 322,
9042, 334, 328, 347, 323,
9044, 334, 327, 346, 323,
9047, 334, 327, 346, 323,
9050, 334, 326, 346, 323,
9052, 334, 327, 346, 323,
9054, 334, 327, 345, 323,
9057, 334, 327, 345, 323,
9059, 333, 327, 345, 323,
9061, 333, 327, 345, 327,
9063, 334, 327, 345, 323,
9066, 334, 327, 345, 323,
9068, 333, 324, 344, 323,
9070, 333, 324, 344, 323,
9073, 333, 323, 344, 323,
9075, 333, 322, 344, 322,
9077, 333, 322, 346, 323,
9080, 333, 324, 345, 323,
9082, 334, 326, 344, 323,
9084, 334, 327, 344, 323,
9088, 333, 327, 344, 324,
9090, 333, 327, 344, 325,
9092, 333, 327, 344, 323,
9095, 333, 326, 344, 323,
9097, 334, 327, 343, 324,
9099, 333, 328, 343, 324,
9102, 333, 327, 343, 323,
9104, 333, 327, 344, 323,
9106, 333, 328, 343, 323,
9109, 333, 328, 343, 323,
9111, 333, 328, 343, 323,
9113, 333, 328, 343, 323,
9116, 333, 329, 343, 322,
9118, 333, 329, 343, 322,
9120, 333, 328, 342, 324,
9123, 333, 328, 344, 324,
9125, 333, 327, 342, 323,
9127, 334, 328, 342, 322,
9131, 334, 328, 341, 323,
9133, 334, 328, 341, 323,
9135, 333, 327, 341, 323,
9138, 333, 328, 341, 322,
9140, 333, 328, 340, 323,
9142, 334, 328, 340, 325,
9145, 333, 327, 340, 323,
9147, 334, 327, 341, 323,
9149, 333, 327, 341, 323,
9151, 334, 327, 340, 323,
9154, 333, 327, 339, 324,
9156, 333, 327, 340, 323,
9158, 334, 327, 340, 323,
9161, 334, 329, 340, 323,
9163, 334, 327, 339, 323,
9165, 334, 327, 339, 323,
9168, 334, 328, 340, 323,
9170, 334, 327, 339, 323,
9172, 334, 327, 338, 324,
9176, 334, 327, 339, 324,
9178, 334, 327, 339, 323,
9180, 334, 328, 338, 323,
9183, 333, 328, 339, 322,
9185, 335, 327, 339, 323,
9187, 334, 327, 338, 323,
9190, 334, 327, 338, 323,
9192, 334, 328, 338, 323,
9194, 334, 328, 337, 322,
9197, 334, 326, 337, 323,
9199, 334, 327, 337, 323,
9201, 334, 327, 337, 322,
9204, 334, 327, 337, 323,
9206, 335, 327, 337, 323,
9208, 334, 327, 337, 323,
9211, 334, 327, 336, 323,
9213, 333, 327, 337, 323,
9216, 334, 327, 336, 322,
9219, 334, 328, 336, 323,
9221, 334, 327, 336, 323,
9223, 334, 327, 335, 323,
9226, 334, 327, 336, 324,
9228, 334, 327, 336, 322,
9230, 334, 327, 336, 324,
9233, 334, 326, 336, 323,
9235, 334, 326, 336, 323,
9237, 334, 327, 336, 328,
9239, 333, 326, 336, 324,
9242, 334, 327, 336, 324,
9244, 333, 327, 336, 324,
9246, 333, 327, 336, 323,
9249, 334, 327, 336, 325,
9251, 333, 326, 335, 325,
9253, 332, 327, 339, 324,
9256, 333, 327, 336, 324,
9259, 333, 326, 335, 324,
9261, 333, 327, 335, 324,
9264, 333, 327, 335, 325,
9266, 333, 326, 336, 324,
9268, 333, 327, 335, 324,
9271, 333, 329, 334, 324,
9273, 332, 326, 334, 325,
9275, 332, 327, 335, 324,
9278, 332, 326, 335, 324,
9280, 332, 327, 335, 324,
9282, 332, 327, 334, 325,
9285, 332, 327, 335, 325,
9287, 335, 326, 335, 325,
9289, 332, 327, 335, 325,
9292, 332, 327, 334, 324,
9294, 332, 327, 334, 327,
9296, 331, 327, 334, 325,
9299, 331, 326, 334, 325,
9302, 331, 327, 334, 325,
9304, 332, 327, 334, 325,
9307, 331, 327, 334, 326,
9309, 332, 327, 333, 327,
9311, 331, 326, 334, 327,
9314, 332, 327, 333, 326,
9316, 332, 327, 333, 326,
9318, 332, 327, 334, 327,
9321, 331, 327, 334, 326,
9323, 331, 326, 334, 327,
9325, 332, 327, 333, 327,
9327, 331, 327, 334, 327,
9330, 331, 326, 334, 327,
9332, 331, 327, 334, 327,
9334, 331, 327, 333, 327,
9337, 330, 327, 333, 326,
9339, 331, 327, 333, 327,
9341, 330, 326, 333, 328,
9345, 330, 327, 333, 327,
9347, 331, 327, 333, 327,
9349, 331, 326, 332, 327,
9352, 331, 327, 333, 328,
9354, 330, 327, 333, 328,
9356, 331, 327, 333, 327,
9359, 331, 327, 333, 328,
9361, 333, 326, 332, 328,
9363, 329, 327, 332, 328,
9366, 330, 326, 333, 328,
9368, 329, 327, 332, 327,
9370, 330, 326, 332, 329,
9373, 330, 326, 331, 329,
9375, 329, 326, 331, 328,
9377, 329, 326, 332, 328,
9380, 329, 327, 332, 328,
9382, 329, 326, 331, 329,
9384, 329, 326, 331, 328,
9388, 329, 326, 332, 328,
9390, 328, 326, 331, 329,
9392, 329, 326, 331, 329,
9395, 329, 325, 331, 329,
9397, 329, 325, 331, 329,
9399, 329, 324, 331, 329,
9402, 329, 326, 330, 329,
9404, 329, 326, 330, 330,
9406, 328, 326, 330, 329,
9409, 328, 326, 331, 328,
9411, 328, 327, 331, 329,
9413, 328, 326, 331, 330,
9415, 328, 326, 331, 329,
9418, 329, 327, 331, 329,
9420, 328, 327, 331, 328,
9422, 328, 326, 330, 328,
9425, 328, 326, 330, 329,
9427, 329, 326, 330, 329,
9430, 328, 327, 333, 330,
9433, 329, 326, 330, 329,
9435, 328, 326, 330, 330,
9437, 328, 326, 330, 329,
9440, 328, 326, 330, 329,
9442, 328, 326, 331, 328,
9444, 329, 326, 330, 328,
9447, 328, 329, 330, 329,
9449, 328, 325, 331, 329,
9451, 327, 326, 330, 329,
9454, 327, 326, 330, 328,
9456, 327, 327, 330, 328,
9458, 328, 326, 330, 329,
9461, 328, 326, 330, 329,
9463, 331, 326, 330, 329,
9465, 328, 326, 330, 329,
9468, 328, 326, 330, 330,
9470, 328, 326, 330, 329,
9473, 328, 326, 330, 330,
9476, 327, 324, 330, 329,
9478, 328, 326, 329, 330,
9480, 328, 326, 329, 330,
9483, 327, 326, 328, 329,
9485, 328, 325, 329, 329,
9487, 327, 326, 329, 330,
9490, 328, 326, 329, 330,
9492, 327, 326, 329, 330,
9494, 327, 325, 329, 329,
9496, 327, 325, 329, 330,
9499, 327, 326, 329, 329,
9501, 328, 324, 327, 330,
9503, 327, 324, 329, 329,
9506, 327, 325, 329, 329,
9508, 327, 326, 328, 329,
9510, 327, 326, 328, 330,
9513, 327, 326, 328, 329,
9516, 327, 327, 328, 329,
9518, 326, 327, 328, 329,
9521, 326, 326, 328, 328,
9523, 327, 326, 328, 330,
9525, 326, 327, 328, 329,
9528, 327, 326, 328, 329,
9530, 326, 326, 328, 329,
9532, 327, 327, 327, 328,
9535, 327, 326, 327, 329,
9537, 327, 326, 328, 330,
9539, 327, 326, 327, 328,
9542, 326, 327, 328, 329,
9544, 327, 327, 327, 329,
9546, 326, 326, 327, 329,
9549, 326, 326, 327, 329,
9551, 326, 326, 328, 329,
9553, 327, 326, 327, 329,
9556, 326, 327, 327, 329,
9559, 326, 326, 327, 329,
9561, 326, 326, 327, 329,
9564, 326, 326, 327, 329,
9566, 325, 326, 327, 328,
9568, 326, 326, 326, 329,
9571, 327, 326, 327, 329,
9573, 326, 326, 327, 329,
9575, 326, 327, 327, 329,
9578, 326, 326, 327, 328,
9580, 326, 326, 327, 330,
9582, 326, 326, 327, 329,
9584, 327, 326, 327, 329,
9587, 327, 326, 327, 330,
9589, 326, 326, 327, 330,
9591, 326, 326, 327, 329,
9594, 326, 326, 327, 329,
9596, 326, 326, 326, 328,
9598, 327, 326, 326, 329,
9602, 327, 326, 325, 330,
9604, 326, 326, 326, 329,
9606, 327, 326, 326, 329,
9609, 326, 327, 326, 329,
9611, 326, 326, 325, 329,
9613, 326, 325, 325, 329,
9616, 326, 325, 326, 329,
9618, 326, 326, 325, 328,
9620, 326, 326, 325, 330,
9623, 326, 329, 326, 329,
9625, 326, 326, 325, 330,
9627, 326, 327, 325, 329,
9630, 326, 327, 325, 330,
9632, 326, 326, 325, 331,
9634, 325, 326, 324, 330,
9637, 326, 326, 325, 329,
9639, 326, 327, 325, 330,
9641, 325, 327, 325, 329,
9645, 325, 326, 325, 330,
9647, 326, 326, 325, 329,
9649, 326, 327, 326, 329,
9652, 325, 326, 326, 329,
9654, 326, 326, 324, 330,
9656, 326, 326, 326, 330,
9659, 325, 326, 326, 330,
9661, 326, 326, 325, 329,
9663, 326, 327, 325, 330,
9666, 326, 326, 325, 330,
9668, 324, 327, 325, 329,
9670, 326, 327, 325, 329,
9672, 326, 326, 325, 330,
9675, 326, 327, 325, 331,
9677, 326, 326, 325, 330,
9679, 326, 326, 325, 330,
9682, 325, 327, 325, 329,
9684, 325, 326, 325, 329,
9687, 325, 326, 325, 330,
9690, 326, 326, 325, 330,
9692, 325, 326, 325, 332,
9694, 325, 326, 325, 329,
9697, 326, 326, 325, 330,
9699, 325, 325, 324, 330,
9701, 326, 326, 325, 330,
9704, 325, 325, 326, 329,
9706, 325, 326, 325, 330,
9708, 325, 326, 327, 330,
9711, 325, 326, 324, 330,
9713, 325, 327, 325, 330,
9715, 325, 326, 325, 330,
9718, 325, 326, 325, 330,
9720, 326, 325, 324, 330,
9722, 325, 325, 325, 330,
9725, 325, 326, 325, 330,
9728, 325, 327, 325, 329,
9730, 326, 326, 325, 330,
9733, 325, 326, 324, 330,
9735, 325, 326, 325, 330,
9737, 325, 325, 325, 329,
9740, 325, 326, 324, 331,
9742, 326, 326, 324, 330,
9744, 325, 326, 324, 330,
9747, 324, 326, 324, 330,
9749, 325, 326, 324, 329,
9751, 325, 326, 324, 331,
9754, 325, 325, 324, 329,
9756, 325, 326, 324, 329,
9758, 325, 325, 324, 329,
9760, 325, 326, 324, 329,
9763, 325, 326, 324, 330,
9765, 325, 325, 324, 330,
9767, 324, 326, 324, 329,
9771, 325, 327, 324, 329,
9773, 325, 326, 323, 330,
9775, 325, 326, 323, 330,
9778, 325, 326, 324, 330,
9780, 324, 326, 324, 329,
9782, 325, 325, 323, 329,
9785, 325, 325, 323, 330,
9787, 325, 325, 324, 329,
9789, 324, 326, 324, 329,
9792, 325, 326, 324, 328,
9794, 324, 325, 323, 328,
9796, 324, 325, 324, 329,
9799, 325, 325, 323, 329,
9801, 324, 326, 324, 329,
9803, 325, 325, 323, 329,
9806, 325, 325, 323, 330,
9808, 325, 325, 323, 329,
9810, 324, 325, 323, 329,
9814, 324, 324, 324, 329,
9816, 325, 325, 324, 330,
9818, 325, 325, 323, 330,
9821, 325, 325, 323, 329,
9823, 325, 325, 324, 329,
9825, 325, 325, 323, 329,
9828, 324, 324, 323, 329,
9830, 325, 325, 324, 329,
9832, 325, 325, 324, 329,
9835, 325, 325, 323, 329,
9837, 325, 326, 323, 328,
9839, 325, 325, 323, 329,
9842, 325, 325, 323, 328,
9844, 324, 325, 323, 328,
9846, 325, 325, 323, 328,
9848, 325, 325, 323, 328,
9851, 325, 325, 323, 329,
9853, 325, 325, 323, 328,
9856, 325, 325, 322, 327,
9859, 325, 325, 322, 328,
9861, 326, 325, 323, 329,
9863, 325, 324, 323, 328,
9866, 325, 325, 323, 328,
9868, 325, 325, 323, 331,
9870, 326, 325, 323, 327,
9873, 326, 325, 323, 328,
9875, 325, 325, 323, 328,
9877, 326, 326, 323, 328,
9880, 326, 326, 323, 327,
9882, 326, 325, 322, 329,
9884, 326, 325, 325, 328,
9887, 325, 325, 323, 328,
9889, 325, 325, 322, 328,
9891, 326, 326, 322, 329,
9894, 326, 326, 322, 329,
9896, 325, 326, 322, 328,
9899, 325, 326, 322, 328,
9902, 324, 329, 322, 327,
9904, 325, 326, 322, 328,
9906, 326, 326, 322, 328,
9909, 325, 326, 322, 328,
9911, 326, 326, 323, 328,
9913, 326, 327, 322, 329,
9916, 326, 326, 322, 328,
9918, 329, 326, 322, 327,
9920, 325, 325, 323, 327,
9923, 326, 326, 322, 328,
9925, 326, 326, 322, 328,
9927, 326, 326, 322, 328,
9930, 325, 326, 322, 328,
9932, 326, 326, 322, 327,
9934, 326, 326, 321, 327,
9936, 326, 326, 321, 328,
9939, 326, 326, 321, 328,
9942, 326, 326, 322, 328,
9944, 326, 326, 322, 328,
9947, 325, 327, 321, 329,
9949, 326, 326, 321, 329,
9951, 326, 326, 321, 328,
9954, 326, 326, 321, 328,
9956, 326, 327, 321, 328,
9958, 326, 326, 321, 329,
9961, 326, 326, 321, 329,
9963, 326, 326, 321, 329,
9965, 326, 326, 322, 328,
9968, 327, 327, 321, 329,
9970, 326, 326, 321, 329,
9972, 326, 326, 321, 328,
9975, 326, 327, 321, 328,
9977, 325, 327, 321, 328,
9979, 325, 326, 321, 328,
9982, 326, 326, 321, 328,
9985, 326, 326, 321, 327,
9987, 326, 326, 321, 327,
9990, 326, 327, 321, 328,
9992, 326, 326, 321, 327,
9994, 326, 326, 321, 328,
9997, 326, 327, 321, 328,
9999, 326, 327, 321, 327,
10001, 327, 326, 321, 327,
10004, 326, 326, 321, 327,
10006, 327, 326, 321, 327,
10008, 326, 325, 321, 327,
10011, 326, 325, 321, 328,
10013, 326, 325, 321, 328,
10016, 326, 326, 321, 328,
10018, 326, 325, 321, 329,
10020, 326, 326, 321, 328,
10023, 326, 326, 321, 329,
10025, 326, 327, 321, 329,
10029, 325, 326, 321, 329,
10031, 325, 326, 321, 329,
10034, 325, 326, 322, 328,
10036, 325, 326, 320, 327,
10038, 326, 326, 322, 329,
10041, 326, 326, 322, 328,
10043, 325, 325, 321, 328,
10046, 325, 326, 321, 327,
10048, 325, 326, 321, 327,
10050, 326, 326, 321, 328,
10053, 325, 326, 321, 327,
10055, 325, 326, 321, 328,
10058, 326, 325, 321, 327,
10060, 326, 326, 320, 330,
10062, 326, 326, 320, 328,
10065, 326, 326, 321, 328,
10067, 326, 326, 321, 328,
10071, 326, 325, 321, 328,
10073, 326, 325, 321, 328,
10075, 326, 326, 321, 328,
10078, 329, 325, 321, 327,
10080, 325, 325, 321, 327,
10083, 325, 326, 321, 328,
10085, 325, 326, 321, 328,
10087, 325, 325, 321, 327,
10090, 326, 325, 320, 327,
10092, 326, 325, 321, 327,
10095, 326, 325, 320, 327,
10097, 326, 325, 321, 327,
10100, 326, 325, 321, 328,
10102, 325, 326, 321, 328,
10104, 325, 325, 321, 327,
10107, 326, 325, 320, 328,
10109, 326, 326, 320, 327,
10113, 326, 325, 321, 327,
10115, 325, 325, 320, 327,
10117, 326, 326, 321, 327,
10120, 326, 325, 320, 327,
10122, 326, 325, 320, 327,
10125, 326, 325, 321, 327,
10127, 326, 325, 320, 328,
10129, 326, 324, 320, 327,
10132, 326, 325, 321, 327,
10134, 326, 325, 320, 328,
10137, 326, 325, 320, 327,
10139, 326, 325, 320, 327,
10141, 325, 326, 320, 328,
10144, 325, 325, 320, 327,
10146, 325, 325, 323, 327,
10149, 325, 324, 320, 327,
10151, 326, 325, 321, 327,
10153, 325, 325, 320, 327,
10157, 325, 325, 320, 327,
10159, 325, 325, 321, 327,
10162, 325, 325, 321, 326,
10164, 325, 325, 321, 327,
10167, 325, 325, 320, 327,
10169, 325, 325, 321, 327,
10171, 325, 325, 321, 327,
10174, 325, 325, 321, 328,
10176, 325, 325, 321, 327,
10179, 326, 325, 320, 328,
10181, 326, 325, 321, 327,
10183, 326, 325, 321, 327,
10186, 326, 325, 321, 327,
10188, 326, 325, 321, 327,
10191, 326, 325, 321, 327,
10193, 326, 325, 321, 328,
10195, 325, 325, 319, 327,
10199, 325, 325, 321, 327,
10201, 326, 325, 321, 327,
10204, 325, 325, 320, 327,
10206, 326, 325, 321, 327,
10208, 326, 324, 321, 327,
10211, 326, 326, 320, 328,
10213, 325, 325, 320, 328,
10216, 326, 325, 321, 328,
10218, 325, 325, 321, 328,
10220, 325, 325, 321, 328,
10223, 325, 326, 321, 328,
10225, 326, 326, 320, 329,
10228, 325, 325, 321, 328,
10230, 325, 325, 320, 329,
10233, 325, 327, 321, 329,
10235, 326, 326, 321, 329,
10237, 325, 326, 321, 329,
10241, 326, 326, 321, 329,
10243, 325, 326, 320, 329,
10246, 325, 330, 321, 329,
10248, 325, 325, 321, 328,
10250, 325, 326, 320, 329,
10253, 326, 325, 321, 328,
10255, 325, 326, 320, 328,
10258, 326, 326, 320, 329,
10260, 325, 325, 320, 329,
10262, 325, 325, 320, 329,
10265, 326, 326, 320, 329,
10267, 325, 326, 321, 329,
10270, 325, 326, 320, 329,
10272, 325, 326, 320, 328,
10274, 325, 326, 320, 328,
10277, 325, 325, 320, 329,
10279, 325, 326, 319, 328,
10283, 325, 326, 320, 329,
10285, 326, 326, 320, 329,
10287, 325, 326, 319, 329,
10290, 325, 326, 319, 328,
10292, 325, 326, 319, 330,
10295, 324, 326, 320, 329,
10297, 325, 325, 320, 329,
10300, 325, 326, 319, 329,
10302, 325, 326, 319, 329,
10304, 325, 326, 319, 328,
10307, 324, 326, 319, 329,
10309, 324, 326, 319, 329,
10312, 324, 327, 319, 330,
10314, 324, 326, 319, 332,
10316, 324, 327, 319, 329,
10319, 323, 326, 318, 329,
10321, 324, 326, 319, 330,
10324, 325, 326, 319, 329,
10327, 324, 326, 318, 331,
10329, 324, 326, 319, 330,
10332, 329, 325, 319, 330,
10334, 324, 326, 318, 329,
10337, 324, 326, 319, 329,
10339, 323, 326, 318, 331,
10341, 324, 327, 318, 329,
10344, 325, 326, 319, 328,
10346, 324, 326, 317, 329,
10349, 324, 326, 318, 329,
10351, 325, 326, 318, 329,
10353, 324, 326, 319, 329,
10356, 324, 326, 318, 329,
10358, 324, 326, 319, 329,
10361, 324, 325, 318, 329,
10363, 324, 326, 318, 329,
10366, 323, 326, 317, 329,
10369, 324, 326, 318, 330,
10371, 324, 326, 319, 329,
10374, 324, 326, 318, 330,
10376, 324, 326, 318, 329,
10379, 324, 326, 319, 329,
10381, 324, 326, 318, 329,
10383, 324, 326, 318, 329,
10386, 323, 326, 318, 329,
10388, 323, 325, 317, 329,
10391, 323, 326, 319, 329,
10393, 323, 326, 318, 329,
10395, 323, 327, 318, 329,
10398, 323, 326, 318, 329,
10400, 324, 326, 318, 329,
10403, 322, 326, 317, 329,
10405, 323, 326, 318, 329,
10407, 323, 325, 318, 329,
10411, 324, 326, 319, 329,
10413, 323, 327, 320, 329,
10416, 323, 326, 319, 329,
10418, 323, 326, 318, 329,
10420, 323, 327, 318, 329,
10423, 322, 326, 318, 329,
10425, 324, 326, 319, 329,
10428, 323, 325, 319, 329,
10430, 324, 326, 318, 329,
10432, 323, 327, 318, 329,
10435, 324, 326, 319, 329,
10437, 323, 326, 319, 329,
10440, 324, 326, 319, 329,
10442, 322, 326, 318, 329,
10445, 322, 326, 318, 329,
10447, 323, 326, 318, 329,
10449, 322, 326, 318, 329,
10452, 322, 326, 319, 330,
10455, 323, 326, 319, 329,
10458, 322, 326, 319, 329,
10460, 322, 326, 319, 329,
10462, 323, 326, 318, 329,
10465, 322, 326, 318, 329,
10467, 322, 326, 318, 329,
10470, 322, 326, 318, 329,
10472, 322, 325, 319, 328,
10474, 322, 324, 318, 329,
10477, 322, 326, 318, 329,
10479, 322, 325, 319, 329,
10482, 322, 326, 318, 329,
10484, 322, 326, 318, 330,
10486, 323, 325, 318, 329,
10489, 322, 326, 318, 329,
10491, 322, 326, 318, 329,
10494, 323, 326, 319, 329,
10497, 322, 326, 318, 329,
10499, 322, 330, 318, 329,
10502, 322, 326, 318, 329,
10504, 322, 325, 318, 330,
10507, 323, 325, 318, 329,
10509, 322, 325, 318, 329,
10512, 322, 326, 319, 329,
10514, 321, 325, 317, 329,
10516, 322, 325, 317, 329,
10519, 322, 325, 317, 329,
10521, 322, 326, 317, 329,
10524, 322, 325, 318, 329,
10526, 322, 325, 318, 329,
10528, 322, 325, 318, 329,
10531, 322, 325, 317, 329,
10533, 322, 325, 317, 329,
10536, 322, 326, 317, 329,
10539, 322, 325, 316, 329,
10541, 322, 325, 317, 329,
10544, 322, 326, 316, 330,
10546, 322, 326, 317, 329,
10549, 321, 326, 317, 329,
10551, 321, 326, 316, 328,
10553, 321, 326, 317, 329,
10556, 322, 326, 316, 327,
10558, 321, 326, 316, 328,
10561, 321, 326, 315, 329,
10563, 321, 325, 315, 328,
10565, 321, 326, 315, 327,
10568, 320, 327, 315, 327,
10570, 321, 327, 315, 328,
10573, 320, 326, 314, 328,
10575, 321, 326, 315, 328,
10578, 322, 326, 315, 328,
10580, 321, 327, 314, 331,
10583, 321, 325, 314, 328,
10586, 321, 327, 313, 328,
10588, 321, 327, 313, 328,
10591, 320, 326, 313, 328,
10593, 320, 327, 312, 329,
10595, 321, 327, 312, 328,
10598, 324, 327, 312, 328,
10600, 321, 326, 312, 328,
10603, 320, 326, 312, 328,
10605, 319, 326, 311, 328,
10607, 319, 326, 310, 328,
10610, 320, 326, 310, 327,
10612, 319, 326, 310, 328,
10615, 319, 326, 309, 327,
10617, 319, 326, 309, 327,
10619, 319, 326, 309, 328,
10622, 320, 326, 309, 327,
10625, 320, 326, 308, 328,
10628, 320, 327, 307, 328,
10630, 320, 326, 308, 327,
10632, 318, 327, 308, 327,
10635, 319, 326, 307, 327,
10637, 319, 327, 306, 327,
10640, 319, 327, 305, 327,
10642, 319, 326, 304, 328,
10645, 319, 327, 304, 328,
10647, 318, 327, 304, 327,
10649, 318, 327, 304, 327,
10652, 318, 327, 303, 328,
10654, 319, 327, 302, 329,
10657, 318, 327, 302, 328,
10659, 318, 326, 302, 328,
10661, 318, 327, 302, 327,
10664, 317, 327, 301, 328,
10667, 318, 326, 304, 327,
10670, 318, 327, 300, 327,
10672, 318, 327, 300, 327,
10674, 317, 327, 299, 327,
10677, 318, 327, 299, 328,
10679, 318, 326, 298, 328,
10682, 318, 326, 298, 327,
10684, 317, 327, 298, 327,
10686, 316, 327, 297, 328,
10689, 315, 327, 297, 327,
10691, 316, 327, 296, 326,
10694, 317, 327, 296, 327,
10696, 316, 326, 295, 327,
10698, 315, 328, 295, 327,
10701, 316, 326, 295, 327,
10703, 315, 326, 294, 327,
10706, 315, 326, 293, 326,
10708, 314, 326, 292, 327,
10712, 315, 326, 293, 327,
10714, 316, 326, 293, 326,
10716, 314, 326, 292, 326,
10719, 315, 326, 292, 326,
10721, 313, 327, 291, 327,
10724, 313, 326, 290, 327,
10726, 313, 326, 290, 327,
10728, 313, 326, 290, 327,
10731, 313, 325, 289, 326,
10733, 312, 326, 288, 327,
10736, 311, 325, 287, 326,
10738, 312, 325, 287, 327,
10740, 311, 325, 286, 327,
10743, 311, 326, 284, 327,
10745, 310, 325, 284, 327,
10748, 310, 325, 283, 327,
10750, 311, 325, 282, 326,
10753, 310, 325, 280, 326,
10756, 310, 325, 280, 326,
10758, 309, 325, 279, 324,
10761, 308, 325, 277, 324,
10763, 308, 325, 277, 325,
10765, 308, 326, 275, 326,
10768, 307, 325, 274, 326,
10770, 307, 325, 273, 327,
10773, 307, 325, 272, 327,
10775, 307, 324, 270, 327,
10778, 306, 325, 269, 327,
10780, 306, 325, 267, 327,
10782, 306, 325, 266, 327,
10785, 306, 325, 265, 327,
10787, 305, 325, 263, 327,
10790, 305, 325, 261, 328,
10792, 304, 325, 259, 327,
10795, 304, 325, 257, 327,
10798, 303, 325, 255, 327,
10800, 302, 325, 254, 327,
10803, 301, 325, 252, 327,
10805, 301, 325, 251, 327,
10807, 301, 324, 249, 327,
10810, 301, 324, 247, 327,
10812, 300, 325, 244, 327,
10815, 301, 324, 243, 327,
10817, 299, 324, 240, 327,
10819, 300, 324, 238, 327,
10822, 301, 323, 237, 326,
10824, 301, 325, 236, 326,
10827, 298, 324, 235, 326,
10829, 299, 324, 232, 326,
10831, 298, 324, 231, 326,
10834, 298, 324, 229, 326,
10836, 296, 324, 227, 326,
10840, 295, 324, 226, 327,
10842, 295, 324, 225, 326,
10845, 295, 325, 224, 327,
10847, 296, 324, 222, 327,
10849, 295, 324, 222, 326,
10852, 294, 324, 220, 327,
10854, 295, 324, 220, 326,
10857, 295, 323, 218, 326,
10859, 292, 323, 216, 326,
10861, 294, 323, 215, 325,
10864, 295, 323, 214, 325,
10866, 293, 323, 213, 326,
10869, 292, 323, 213, 325,
10871, 291, 323, 213, 326,
10873, 292, 324, 213, 327,
10876, 292, 323, 214, 326,
10878, 291, 323, 215, 326,
10882, 291, 323, 217, 326,
10884, 290, 323, 217, 326,
10886, 290, 323, 219, 326,
10889, 289, 323, 222, 326,
10891, 290, 323, 223, 327,
10894, 291, 323, 225, 326,
10896, 290, 323, 226, 327,
10898, 291, 323, 228, 327,
10901, 292, 323, 231, 326,
10903, 291, 323, 232, 327,
10906, 290, 322, 233, 326,
10908, 291, 323, 233, 327,
10911, 291, 323, 236, 327,
10913, 291, 324, 238, 327,
10915, 291, 323, 239, 326,
10918, 289, 324, 240, 327,
10920, 289, 323, 239, 326,
10924, 291, 323, 243, 326,
10926, 290, 324, 243, 326,
10928, 291, 323, 244, 326,
10931, 292, 324, 245, 327,
10933, 292, 324, 250, 326,
10936, 292, 324, 247, 327,
10938, 292, 324, 248, 327,
10940, 292, 324, 249, 327,
10943, 290, 324, 249, 327,
10945, 291, 324, 251, 326,
10948, 290, 324, 250, 327,
10950, 290, 324, 252, 327,
10952, 290, 323, 252, 326,
10955, 291, 324, 253, 327,
10957, 290, 324, 253, 327,
10960, 290, 324, 254, 327,
10962, 289, 324, 255, 327,
10964, 290, 325, 255, 328,
10968, 292, 324, 255, 327,
10970, 290, 325, 256, 326,
10973, 291, 324, 256, 326,
10975, 292, 324, 257, 327,
