starting
0, 325, 327, 328, 328,
1, 326, 327, 327, 328,
2, 326, 326, 328, 328,
4, 327, 328, 328, 328,
5, 327, 327, 329, 329,
7, 327, 327, 329, 329,
8, 327, 327, 328, 329,
10, 328, 327, 327, 328,
12, 327, 327, 328, 329,
14, 327, 327, 327, 329,
16, 327, 328, 328, 329,
19, 327, 328, 328, 328,
21, 327, 327, 328, 328,
23, 327, 328, 328, 329,
25, 328, 328, 328, 328,
27, 327, 328, 327, 328,
29, 327, 327, 327, 328,
32, 327, 327, 329, 329,
34, 327, 328, 327, 328,
36, 329, 327, 328, 327,
38, 327, 327, 328, 329,
40, 327, 328, 327, 328,
43, 327, 328, 328, 328,
46, 328, 327, 327, 328,
48, 328, 327, 327, 327,
50, 327, 328, 327, 329,
52, 328, 327, 328, 330,
54, 328, 327, 328, 328,
56, 327, 326, 328, 328,
58, 327, 328, 328, 328,
61, 326, 329, 328, 328,
63, 328, 327, 328, 328,
65, 327, 328, 328, 328,
67, 328, 329, 327, 328,
69, 327, 328, 329, 328,
71, 327, 327, 327, 328,
74, 327, 328, 328, 329,
76, 327, 328, 327, 327,
78, 328, 327, 328, 325,
80, 327, 328, 327, 328,
82, 327, 328, 327, 328,
84, 327, 330, 328, 328,
88, 326, 327, 327, 327,
90, 330, 328, 328, 328,
92, 327, 328, 327, 329,
94, 327, 327, 327, 328,
96, 327, 328, 328, 329,
98, 326, 328, 328, 328,
100, 327, 328, 328, 328,
103, 327, 328, 328, 329,
105, 327, 328, 327, 328,
107, 326, 328, 328, 328,
109, 326, 328, 328, 328,
112, 327, 328, 328, 328,
114, 326, 328, 328, 329,
116, 327, 327, 327, 328,
118, 327, 328, 328, 328,
121, 326, 328, 328, 328,
123, 327, 328, 328, 328,
125, 327, 327, 328, 329,
128, 326, 327, 328, 328,
131, 326, 327, 328, 328,
133, 326, 328, 328, 328,
135, 326, 327, 328, 328,
137, 326, 327, 328, 328,
140, 326, 327, 328, 328,
142, 326, 327, 329, 328,
144, 326, 328, 328, 328,
146, 327, 327, 328, 328,
149, 326, 327, 328, 328,
151, 326, 327, 328, 328,
153, 327, 326, 328, 327,
155, 326, 328, 327, 328,
158, 326, 328, 328, 328,
160, 326, 328, 327, 328,
162, 327, 328, 327, 328,
164, 327, 328, 328, 328,
166, 326, 328, 327, 328,
169, 326, 328, 327, 327,
172, 326, 328, 327, 328,
174, 326, 328, 327, 328,
176, 325, 328, 327, 328,
179, 326, 328, 328, 328,
181, 326, 328, 327, 328,
183, 326, 328, 327, 328,
185, 325, 328, 327, 328,
188, 329, 328, 327, 328,
190, 326, 327, 327, 328,
192, 326, 328, 327, 327,
194, 325, 328, 327, 328,
197, 326, 328, 328, 328,
199, 326, 328, 327, 328,
201, 326, 328, 328, 327,
203, 326, 330, 327, 328,
206, 325, 328, 328, 328,
208, 328, 327, 328, 328,
210, 326, 328, 327, 328,
212, 326, 328, 327, 327,
216, 326, 328, 328, 328,
218, 324, 327, 328, 328,
220, 326, 328, 327, 328,
222, 326, 328, 326, 327,
225, 326, 328, 327, 327,
227, 326, 327, 328, 328,
229, 326, 327, 327, 328,
231, 326, 328, 328, 328,
233, 326, 328, 327, 327,
236, 326, 328, 327, 327,
238, 327, 328, 328, 328,
240, 327, 327, 327, 327,
242, 327, 328, 327, 328,
245, 327, 327, 327, 328,
247, 326, 328, 328, 326,
249, 326, 328, 328, 328,
251, 326, 327, 328, 327,
254, 327, 328, 327, 327,
257, 326, 328, 328, 327,
259, 326, 328, 327, 328,
261, 326, 328, 327, 327,
264, 327, 327, 327, 327,
266, 326, 327, 327, 328,
268, 327, 327, 328, 326,
270, 326, 328, 328, 327,
273, 326, 328, 327, 328,
275, 327, 327, 327, 327,
277, 326, 327, 331, 327,
279, 327, 327, 328, 328,
282, 326, 327, 327, 327,
284, 326, 328, 328, 328,
286, 326, 328, 328, 328,
288, 327, 328, 328, 327,
291, 326, 327, 329, 328,
293, 326, 327, 328, 331,
295, 326, 328, 328, 328,
297, 326, 328, 329, 327,
300, 326, 328, 328, 328,
303, 327, 326, 328, 328,
305, 327, 327, 328, 328,
307, 327, 327, 328, 326,
309, 326, 327, 328, 327,
312, 327, 327, 328, 328,
314, 327, 327, 328, 328,
316, 327, 326, 328, 328,
318, 327, 327, 328, 328,
321, 326, 327, 328, 328,
323, 328, 327, 327, 327,
325, 327, 327, 328, 328,
327, 327, 327, 328, 327,
330, 327, 327, 328, 327,
332, 326, 327, 327, 327,
334, 326, 327, 328, 328,
336, 326, 327, 328, 328,
339, 326, 327, 327, 328,
342, 327, 326, 328, 328,
344, 327, 327, 328, 328,
346, 327, 327, 327, 328,
349, 326, 327, 328, 328,
351, 327, 326, 328, 329,
353, 327, 326, 328, 329,
355, 327, 326, 328, 328,
357, 327, 327, 328, 328,
360, 327, 327, 328, 328,
362, 327, 327, 328, 328,
364, 327, 326, 328, 329,
366, 327, 326, 328, 328,
369, 327, 326, 328, 329,
371, 326, 327, 328, 328,
373, 326, 326, 328, 328,
375, 327, 327, 328, 328,
378, 326, 326, 328, 328,
380, 326, 326, 329, 328,
382, 326, 326, 328, 328,
385, 327, 326, 328, 328,
388, 326, 327, 328, 328,
390, 327, 326, 328, 329,
392, 327, 326, 328, 328,
394, 327, 326, 329, 329,
397, 323, 327, 328, 328,
399, 326, 327, 328, 328,
401, 327, 327, 329, 329,
403, 326, 326, 329, 329,
406, 327, 327, 328, 328,
408, 326, 327, 328, 328,
410, 326, 327, 328, 328,
412, 326, 327, 328, 328,
415, 326, 327, 328, 328,
417, 326, 327, 329, 327,
419, 325, 326, 329, 328,
421, 326, 327, 328, 328,
423, 324, 327, 328, 328,
427, 326, 326, 328, 328,
429, 326, 326, 327, 328,
431, 326, 327, 328, 328,
433, 326, 326, 328, 328,
436, 325, 327, 328, 328,
438, 326, 327, 329, 328,
440, 326, 327, 329, 329,
442, 326, 327, 329, 328,
445, 326, 327, 329, 328,
447, 325, 327, 329, 329,
449, 325, 327, 329, 328,
451, 325, 328, 328, 328,
454, 329, 327, 329, 328,
456, 326, 327, 329, 328,
458, 325, 327, 329, 328,
460, 325, 327, 328, 328,
463, 326, 328, 328, 328,
465, 325, 327, 328, 328,
467, 325, 328, 328, 328,
470, 325, 331, 330, 328,
473, 325, 328, 328, 328,
475, 325, 328, 327, 328,
477, 325, 327, 328, 328,
479, 325, 327, 328, 328,
482, 325, 327, 328, 328,
484, 326, 328, 327, 328,
486, 324, 327, 331, 329,
488, 325, 328, 328, 327,
490, 325, 328, 328, 328,
493, 325, 327, 328, 328,
495, 325, 328, 327, 328,
497, 325, 328, 327, 328,
499, 325, 328, 328, 328,
502, 325, 329, 328, 328,
504, 325, 328, 327, 328,
506, 325, 329, 328, 328,
508, 325, 328, 328, 328,
512, 326, 328, 328, 328,
514, 325, 329, 328, 327,
516, 325, 328, 328, 329,
518, 325, 327, 328, 328,
521, 325, 328, 328, 328,
523, 325, 328, 327, 328,
525, 325, 328, 328, 328,
527, 325, 329, 328, 328,
530, 325, 328, 328, 328,
532, 325, 328, 327, 328,
534, 324, 328, 328, 327,
536, 325, 328, 327, 328,
539, 325, 328, 326, 328,
541, 325, 327, 328, 328,
543, 325, 329, 328, 328,
545, 323, 328, 327, 327,
548, 324, 328, 327, 328,
550, 325, 328, 327, 327,
552, 325, 329, 327, 328,
555, 325, 328, 328, 328,
557, 325, 327, 328, 328,
560, 326, 328, 328, 329,
562, 324, 328, 328, 328,
564, 325, 328, 328, 327,
566, 325, 328, 328, 328,
569, 325, 328, 328, 328,
571, 325, 328, 328, 328,
573, 324, 328, 328, 327,
575, 325, 328, 328, 327,
578, 325, 328, 328, 327,
580, 324, 328, 328, 328,
582, 326, 328, 328, 328,
584, 325, 328, 328, 326,
587, 325, 329, 329, 328,
589, 325, 328, 329, 328,
591, 325, 329, 328, 328,
593, 325, 328, 328, 328,
596, 325, 328, 328, 328,
599, 324, 328, 328, 327,
601, 325, 328, 329, 328,
603, 325, 329, 329, 328,
606, 325, 328, 329, 328,
608, 325, 328, 328, 327,
610, 325, 328, 328, 327,
612, 324, 328, 329, 328,
615, 325, 328, 328, 328,
617, 325, 329, 328, 328,
619, 325, 328, 328, 328,
621, 324, 327, 328, 328,
623, 326, 328, 327, 327,
626, 326, 327, 328, 328,
628, 325, 328, 327, 328,
630, 326, 327, 328, 328,
632, 326, 328, 328, 328,
635, 326, 328, 328, 328,
637, 326, 328, 327, 328,
640, 326, 328, 328, 328,
642, 326, 328, 328, 328,
645, 326, 327, 328, 329,
647, 326, 328, 328, 328,
649, 326, 328, 328, 328,
651, 326, 328, 328, 327,
654, 326, 328, 327, 328,
656, 326, 328, 328, 328,
658, 327, 328, 328, 328,
660, 326, 327, 328, 327,
663, 326, 327, 329, 328,
665, 326, 328, 328, 328,
667, 326, 328, 328, 328,
669, 326, 328, 328, 328,
672, 326, 328, 328, 328,
674, 326, 328, 328, 328,
676, 326, 328, 328, 328,
678, 326, 327, 328, 329,
681, 326, 327, 328, 328,
684, 326, 328, 328, 327,
686, 327, 328, 328, 328,
688, 327, 328, 329, 327,
690, 327, 328, 328, 328,
693, 327, 328, 328, 328,
695, 327, 327, 330, 328,
697, 327, 327, 328, 327,
699, 327, 328, 328, 328,
702, 327, 328, 329, 327,
704, 327, 328, 328, 329,
706, 327, 328, 328, 328,
708, 326, 328, 328, 328,
711, 326, 328, 328, 327,
713, 327, 328, 327, 327,
715, 327, 328, 328, 328,
717, 327, 328, 328, 328,
720, 327, 327, 328, 328,
722, 326, 328, 328, 327,
724, 327, 328, 327, 327,
727, 326, 328, 328, 328,
730, 327, 328, 327, 328,
732, 327, 327, 328, 328,
734, 327, 327, 329, 327,
736, 327, 331, 328, 327,
739, 327, 328, 328, 326,
741, 327, 327, 328, 328,
743, 327, 328, 328, 328,
745, 327, 327, 328, 328,
748, 327, 327, 328, 327,
750, 327, 328, 329, 326,
752, 327, 328, 330, 327,
754, 327, 327, 328, 328,
756, 327, 328, 328, 327,
759, 328, 327, 328, 328,
761, 327, 327, 328, 328,
763, 327, 327, 328, 328,
765, 327, 328, 328, 328,
769, 328, 328, 328, 332,
771, 328, 327, 328, 328,
773, 328, 327, 328, 329,
775, 327, 327, 328, 328,
778, 327, 328, 328, 327,
780, 327, 327, 328, 328,
782, 327, 327, 328, 329,
784, 327, 327, 328, 327,
787, 327, 327, 327, 328,
789, 327, 327, 327, 328,
791, 327, 328, 328, 328,
793, 327, 327, 328, 328,
796, 328, 327, 328, 327,
798, 327, 328, 328, 327,
800, 327, 327, 328, 327,
802, 327, 328, 328, 328,
805, 328, 328, 328, 328,
807, 328, 327, 328, 328,
809, 328, 327, 328, 327,
812, 328, 328, 328, 328,
814, 327, 328, 327, 329,
817, 327, 328, 328, 328,
819, 328, 328, 327, 327,
821, 327, 327, 328, 328,
823, 328, 327, 327, 328,
826, 327, 328, 328, 328,
828, 327, 328, 328, 327,
830, 327, 327, 328, 328,
832, 327, 327, 328, 327,
835, 327, 328, 328, 328,
837, 328, 328, 328, 327,
839, 327, 327, 327, 327,
841, 327, 328, 328, 328,
844, 327, 328, 328, 328,
846, 328, 327, 327, 327,
848, 328, 328, 328, 327,
850, 328, 328, 328, 326,
854, 327, 328, 329, 327,
856, 327, 327, 328, 327,
858, 328, 327, 328, 327,
860, 327, 327, 328, 327,
863, 326, 328, 328, 327,
865, 327, 328, 328, 327,
867, 327, 328, 328, 327,
869, 327, 327, 328, 327,
872, 327, 327, 328, 327,
874, 327, 327, 328, 328,
876, 327, 327, 328, 326,
878, 327, 327, 328, 328,
880, 327, 327, 328, 327,
883, 327, 327, 328, 327,
885, 327, 327, 328, 328,
887, 328, 327, 328, 328,
889, 327, 327, 328, 328,
892, 327, 327, 328, 327,
894, 328, 328, 328, 328,
897, 328, 327, 328, 327,
899, 327, 327, 328, 327,
902, 327, 327, 328, 328,
904, 327, 327, 327, 328,
906, 327, 327, 328, 328,
908, 327, 327, 328, 328,
911, 327, 327, 327, 328,
913, 328, 327, 328, 327,
915, 327, 327, 327, 328,
917, 327, 327, 328, 328,
920, 327, 326, 327, 326,
922, 327, 327, 328, 328,
924, 328, 326, 327, 328,
926, 327, 328, 328, 328,
929, 328, 328, 326, 328,
931, 327, 328, 328, 328,
933, 327, 328, 328, 328,
935, 328, 327, 328, 327,
939, 327, 327, 327, 327,
941, 327, 328, 327, 328,
943, 327, 327, 327, 328,
945, 327, 331, 328, 329,
947, 327, 328, 327, 328,
950, 327, 328, 328, 329,
952, 327, 327, 327, 328,
954, 327, 328, 328, 328,
956, 327, 328, 328, 328,
959, 328, 327, 327, 328,
961, 328, 327, 330, 328,
963, 328, 327, 328, 328,
965, 327, 328, 328, 329,
968, 327, 328, 328, 328,
970, 328, 327, 328, 329,
972, 328, 327, 328, 328,
974, 327, 327, 327, 327,
977, 326, 328, 328, 327,
979, 327, 328, 327, 328,
982, 327, 327, 327, 328,
984, 327, 327, 326, 327,
987, 327, 327, 327, 328,
989, 326, 327, 327, 328,
991, 328, 327, 327, 328,
993, 326, 328, 327, 328,
996, 327, 326, 327, 328,
998, 327, 327, 327, 328,
1000, 327, 326, 328, 328,
1002, 326, 327, 327, 328,
1005, 327, 327, 328, 328,
1007, 326, 327, 327, 327,
1009, 327, 327, 327, 329,
1012, 327, 327, 328, 328,
1014, 326, 327, 328, 328,
1016, 327, 327, 327, 327,
1019, 327, 327, 328, 328,
1021, 327, 327, 327, 328,
1024, 327, 327, 327, 328,
1027, 327, 326, 328, 326,
1029, 328, 328, 327, 329,
1031, 327, 332, 327, 328,
1034, 327, 327, 326, 328,
1036, 327, 327, 327, 328,
1038, 326, 328, 327, 327,
1041, 326, 328, 327, 329,
1043, 327, 327, 325, 328,
1045, 327, 328, 325, 328,
1048, 327, 328, 327, 329,
1050, 326, 329, 326, 328,
1052, 327, 327, 325, 329,
1054, 326, 327, 327, 328,
1057, 326, 327, 327, 328,
1059, 326, 328, 326, 327,
1061, 326, 328, 327, 329,
1064, 326, 328, 327, 329,
1067, 326, 328, 327, 328,
1069, 326, 328, 327, 328,
1072, 327, 328, 326, 329,
1074, 327, 328, 327, 328,
1076, 325, 328, 326, 329,
1079, 327, 327, 327, 329,
1081, 325, 328, 327, 328,
1083, 327, 328, 327, 327,
1086, 327, 328, 326, 329,
1088, 327, 327, 327, 328,
1090, 328, 328, 327, 328,
1093, 327, 329, 327, 328,
1095, 327, 327, 326, 329,
1097, 327, 327, 327, 329,
1100, 327, 327, 328, 331,
1102, 327, 327, 327, 328,
1104, 327, 328, 326, 329,
1107, 328, 328, 327, 329,
1110, 327, 326, 327, 329,
1112, 328, 327, 329, 329,
1115, 327, 328, 328, 328,
1117, 328, 328, 327, 329,
1119, 328, 327, 327, 329,
1122, 328, 329, 326, 329,
1124, 327, 328, 328, 328,
1126, 327, 328, 328, 328,
1129, 328, 328, 327, 329,
1131, 328, 327, 328, 329,
1133, 328, 325, 328, 329,
1136, 328, 327, 328, 330,
1138, 328, 327, 328, 329,
1140, 328, 327, 327, 329,
1142, 328, 327, 328, 328,
1145, 328, 326, 328, 329,
1147, 328, 327, 328, 330,
1149, 330, 327, 328, 330,
1153, 328, 327, 328, 329,
1155, 327, 327, 328, 329,
1157, 328, 327, 328, 328,
1160, 327, 328, 328, 328,
1162, 327, 327, 328, 329,
1164, 327, 326, 328, 329,
1167, 327, 327, 328, 329,
1169, 327, 327, 328, 328,
1171, 328, 327, 327, 330,
1174, 328, 327, 329, 329,
1176, 328, 327, 329, 329,
1178, 327, 327, 328, 330,
1181, 327, 327, 329, 330,
1183, 328, 327, 330, 330,
1185, 326, 327, 329, 329,
1188, 328, 327, 330, 329,
1190, 327, 328, 329, 329,
1192, 328, 327, 328, 330,
1196, 328, 327, 330, 330,
1198, 328, 327, 328, 329,
1200, 327, 328, 329, 329,
1203, 327, 326, 329, 329,
1205, 328, 327, 328, 329,
1207, 328, 328, 329, 329,
1210, 327, 327, 329, 329,
1212, 328, 328, 329, 329,
1214, 328, 327, 329, 330,
1217, 328, 327, 328, 329,
1219, 328, 327, 329, 329,
1221, 327, 326, 330, 329,
1224, 328, 327, 329, 330,
1226, 328, 327, 329, 330,
1228, 328, 327, 329, 329,
1230, 327, 327, 329, 329,
1233, 327, 327, 329, 329,
1235, 327, 326, 329, 330,
1238, 327, 327, 329, 329,
1241, 327, 326, 329, 329,
1243, 327, 327, 329, 329,
1245, 328, 327, 329, 328,
1248, 328, 327, 328, 330,
1250, 328, 326, 329, 329,
1252, 326, 327, 329, 329,
1255, 327, 327, 330, 329,
1257, 328, 327, 329, 330,
1259, 327, 326, 329, 330,
1262, 328, 327, 329, 330,
1264, 327, 327, 329, 329,
1266, 328, 326, 329, 329,
1269, 328, 327, 329, 331,
1271, 328, 326, 329, 329,
1273, 328, 327, 329, 329,
1276, 328, 327, 329, 332,
1278, 327, 327, 329, 328,
1281, 328, 327, 329, 329,
1284, 328, 326, 329, 329,
1286, 327, 326, 330, 329,
1288, 327, 328, 329, 329,
1291, 328, 327, 329, 330,
1293, 328, 326, 334, 329,
1295, 328, 326, 330, 329,
1298, 328, 327, 328, 329,
1300, 328, 327, 329, 330,
1302, 328, 327, 329, 330,
1305, 327, 327, 329, 328,
1307, 328, 327, 329, 329,
1309, 327, 330, 329, 328,
1312, 328, 327, 329, 329,
1314, 327, 327, 329, 329,
1316, 328, 327, 329, 329,
1318, 328, 327, 329, 330,
1321, 327, 328, 329, 329,
1324, 328, 327, 328, 329,
1326, 331, 327, 328, 329,
1329, 327, 326, 329, 329,
1331, 327, 327, 329, 329,
1333, 327, 327, 328, 330,
1336, 328, 327, 328, 329,
1338, 327, 328, 329, 329,
1340, 326, 328, 329, 328,
1343, 327, 328, 329, 329,
1345, 327, 328, 328, 330,
1347, 326, 326, 329, 329,
1350, 327, 327, 328, 329,
1352, 327, 328, 329, 328,
1354, 328, 328, 328, 330,
1357, 327, 328, 328, 328,
1359, 327, 328, 328, 329,
1361, 328, 328, 328, 329,
1364, 327, 329, 328, 328,
1367, 327, 328, 329, 329,
1369, 327, 327, 328, 329,
1372, 326, 328, 328, 328,
1374, 327, 327, 329, 328,
1376, 327, 328, 328, 329,
1379, 327, 328, 328, 329,
1381, 327, 327, 327, 329,
1383, 327, 329, 328, 328,
1386, 325, 328, 328, 328,
1388, 326, 328, 328, 329,
1390, 327, 328, 327, 329,
1393, 326, 327, 328, 328,
1395, 326, 328, 328, 328,
1397, 326, 329, 328, 328,
1400, 327, 328, 328, 329,
1402, 327, 328, 328, 328,
1404, 327, 328, 328, 329,
1406, 327, 328, 328, 328,
1410, 327, 328, 328, 329,
1412, 327, 327, 328, 329,
1414, 326, 328, 328, 328,
1417, 327, 329, 328, 328,
1419, 327, 328, 328, 329,
1421, 327, 328, 328, 330,
1424, 327, 328, 328, 330,
1426, 327, 328, 328, 328,
1428, 327, 328, 328, 328,
1431, 326, 329, 328, 327,
1433, 327, 328, 328, 329,
1435, 327, 328, 328, 328,
1438, 326, 329, 328, 328,
1440, 326, 329, 329, 328,
1442, 327, 328, 327, 329,
1445, 327, 328, 327, 329,
1447, 327, 328, 329, 329,
1449, 327, 329, 328, 328,
1453, 327, 329, 328, 329,
1455, 327, 328, 328, 330,
1457, 326, 328, 328, 328,
1460, 327, 328, 329, 328,
1462, 327, 329, 328, 328,
1464, 327, 329, 328, 329,
1467, 327, 328, 328, 329,
1469, 327, 328, 329, 328,
1471, 326, 329, 328, 328,
1474, 327, 329, 328, 329,
1476, 327, 328, 328, 329,
1478, 327, 328, 328, 329,
1481, 326, 328, 329, 328,
1483, 326, 329, 328, 329,
1485, 327, 332, 328, 330,
1488, 326, 328, 327, 329,
1490, 327, 328, 328, 329,
1492, 326, 329, 328, 329,
1495, 327, 328, 328, 329,
1498, 326, 328, 328, 329,
1500, 326, 327, 328, 329,
1502, 327, 328, 328, 329,
1505, 326, 329, 328, 329,
1507, 325, 328, 328, 329,
1509, 326, 327, 329, 329,
1512, 326, 328, 329, 329,
1514, 326, 328, 328, 329,
1516, 326, 329, 328, 328,
1519, 326, 328, 328, 330,
1521, 326, 328, 328, 330,
1523, 326, 328, 328, 329,
1526, 326, 328, 329, 328,
1528, 326, 328, 328, 330,
1530, 326, 329, 328, 329,
1533, 326, 327, 328, 329,
1536, 326, 328, 329, 329,
1538, 326, 328, 328, 328,
1541, 326, 328, 328, 330,
1543, 326, 328, 329, 328,
1545, 325, 327, 329, 329,
1548, 326, 328, 329, 328,
1550, 326, 329, 329, 328,
1552, 326, 328, 329, 329,
1555, 326, 328, 328, 329,
1557, 325, 327, 329, 329,
1559, 325, 328, 329, 328,
1562, 326, 328, 328, 330,
1564, 326, 328, 328, 329,
1566, 325, 328, 329, 329,
1569, 326, 328, 329, 328,
1571, 326, 328, 327, 329,
1573, 325, 328, 328, 330,
1575, 326, 328, 328, 329,
1579, 325, 327, 328, 329,
1581, 325, 328, 328, 328,
1583, 325, 328, 328, 329,
1586, 325, 328, 328, 330,
1588, 325, 326, 328, 329,
1590, 325, 328, 328, 329,
1593, 325, 329, 328, 328,
1595, 325, 328, 327, 330,
1597, 325, 328, 328, 329,
1600, 325, 327, 328, 329,
1602, 325, 328, 328, 329,
1604, 325, 328, 328, 330,
1607, 325, 328, 328, 329,
1609, 325, 328, 328, 329,
1611, 324, 328, 328, 329,
1614, 324, 328, 328, 328,
1616, 325, 328, 328, 328,
1618, 324, 327, 328, 329,
1622, 325, 327, 329, 329,
1624, 325, 329, 329, 328,
1626, 325, 328, 328, 328,
1629, 325, 328, 328, 330,
1631, 325, 328, 328, 329,
1633, 325, 328, 328, 329,
1636, 324, 329, 328, 329,
1638, 326, 328, 328, 330,
1640, 325, 328, 328, 329,
1643, 325, 328, 329, 329,
1645, 325, 327, 328, 328,
1647, 326, 329, 328, 330,
1650, 325, 329, 328, 329,
1652, 325, 328, 328, 329,
1654, 325, 328, 328, 329,
1657, 325, 328, 328, 328,
1659, 324, 328, 328, 328,
1661, 325, 328, 328, 329,
1664, 325, 327, 328, 329,
1667, 325, 328, 328, 328,
1669, 325, 328, 328, 328,
1671, 325, 328, 327, 329,
1674, 326, 328, 327, 329,
1676, 325, 328, 328, 329,
1678, 326, 328, 328, 329,
1681, 326, 328, 328, 330,
1683, 326, 328, 328, 329,
1685, 326, 328, 328, 329,
1688, 326, 327, 328, 329,
1690, 325, 327, 328, 328,
1692, 326, 328, 328, 330,
1695, 325, 329, 328, 329,
1697, 326, 328, 328, 329,
1699, 326, 328, 328, 329,
1702, 326, 329, 328, 329,
1704, 326, 328, 328, 329,
1707, 325, 328, 328, 330,
1710, 326, 328, 329, 329,
1712, 325, 329, 329, 328,
1714, 327, 328, 328, 330,
1717, 327, 328, 328, 329,
1719, 326, 328, 328, 329,
1721, 326, 326, 329, 329,
1724, 326, 329, 328, 329,
1726, 327, 328, 328, 329,
1728, 326, 328, 327, 329,
1731, 327, 328, 329, 332,
1733, 326, 329, 328, 328,
1735, 326, 328, 328, 330,
1738, 327, 328, 328, 329,
1740, 327, 328, 328, 329,
1742, 326, 329, 329, 328,
1745, 327, 328, 328, 329,
1747, 327, 328, 332, 329,
1750, 327, 328, 328, 329,
1752, 327, 328, 329, 328,
1755, 327, 328, 328, 329,
1757, 327, 328, 328, 330,
1759, 327, 328, 328, 329,
1762, 327, 327, 328, 329,
1764, 326, 328, 328, 329,
1766, 327, 328, 328, 328,
1769, 327, 328, 328, 330,
1771, 326, 326, 329, 329,
1773, 326, 328, 329, 329,
1776, 326, 328, 328, 328,
1778, 326, 328, 328, 327,
1780, 329, 327, 328, 329,
1783, 326, 328, 328, 329,
1785, 326, 328, 328, 328,
1787, 327, 328, 328, 328,
1790, 327, 328, 328, 330,
1793, 327, 328, 328, 327,
1795, 326, 328, 329, 329,
1798, 327, 328, 329, 328,
1800, 327, 328, 328, 329,
1802, 327, 328, 328, 330,
1805, 327, 327, 327, 329,
1807, 327, 327, 329, 328,
1809, 326, 328, 328, 328,
1812, 326, 328, 328, 329,
1814, 327, 328, 327, 329,
1816, 327, 327, 328, 328,
1819, 326, 328, 329, 328,
1821, 327, 329, 329, 329,
1823, 327, 328, 328, 329,
1826, 327, 328, 329, 328,
1828, 327, 327, 329, 328,
1830, 326, 329, 329, 328,
1833, 327, 327, 328, 327,
1836, 327, 328, 328, 329,
1838, 327, 328, 329, 328,
1840, 326, 328, 329, 327,
1843, 328, 328, 328, 328,
1845, 327, 327, 328, 328,
1847, 327, 326, 328, 328,
1850, 327, 327, 329, 327,
1852, 327, 328, 328, 328,
1854, 327, 327, 328, 326,
1857, 327, 327, 329, 328,
1859, 327, 327, 328, 328,
1861, 328, 327, 329, 328,
1864, 327, 328, 329, 327,
1866, 327, 327, 328, 328,
1868, 327, 327, 328, 328,
1871, 327, 327, 328, 327,
1873, 327, 327, 329, 327,
1875, 327, 327, 328, 328,
1879, 327, 327, 329, 327,
1881, 327, 327, 328, 327,
1883, 327, 327, 329, 327,
1886, 326, 328, 329, 326,
1888, 327, 327, 329, 328,
1890, 327, 326, 329, 327,
1893, 327, 327, 327, 327,
1895, 326, 328, 329, 327,
1897, 326, 328, 328, 326,
1900, 327, 327, 328, 327,
1902, 326, 327, 328, 326,
1904, 326, 326, 329, 326,
1907, 326, 328, 329, 327,
1909, 327, 327, 328, 327,
1911, 327, 328, 328, 328,
1914, 325, 327, 328, 326,
1916, 326, 328, 328, 326,
1918, 326, 327, 328, 327,
1922, 326, 327, 328, 328,
1924, 326, 327, 333, 327,
1926, 326, 327, 329, 327,
1928, 326, 327, 328, 327,
1931, 325, 327, 328, 325,
1933, 326, 327, 329, 327,
1935, 325, 327, 329, 327,
1938, 325, 327, 329, 327,
1940, 326, 331, 329, 327,
1942, 326, 327, 328, 328,
1945, 326, 327, 328, 327,
1947, 325, 327, 329, 327,
1949, 325, 328, 329, 327,
1952, 326, 328, 329, 327,
1954, 325, 327, 328, 328,
1956, 329, 328, 329, 327,
1959, 325, 327, 328, 327,
1961, 326, 328, 329, 326,
1964, 325, 328, 328, 329,
1967, 326, 328, 329, 328,
1969, 326, 327, 329, 327,
1971, 326, 328, 329, 327,
1974, 326, 328, 329, 327,
1976, 325, 328, 329, 328,
1978, 325, 327, 329, 328,
1981, 326, 327, 329, 328,
1983, 326, 329, 329, 327,
1985, 325, 328, 329, 328,
1988, 326, 328, 329, 328,
1990, 326, 327, 330, 328,
1992, 326, 327, 330, 328,
1995, 326, 328, 329, 328,
1997, 326, 327, 330, 329,
1999, 327, 327, 329, 328,
2002, 326, 327, 330, 327,
2004, 326, 327, 329, 327,
2007, 326, 328, 329, 326,
2010, 327, 327, 329, 328,
2012, 327, 327, 329, 328,
2014, 327, 327, 329, 328,
2016, 327, 327, 329, 328,
2019, 327, 327, 329, 329,
2021, 327, 326, 329, 329,
2023, 326, 327, 329, 327,
2026, 327, 327, 329, 329,
2028, 327, 328, 329, 329,
2030, 327, 328, 329, 329,
2033, 327, 327, 329, 329,
2035, 326, 328, 329, 328,
2037, 326, 328, 329, 328,
2040, 326, 328, 329, 330,
2042, 326, 325, 329, 329,
2044, 326, 328, 329, 329,
2048, 326, 329, 329, 328,
2050, 326, 328, 329, 328,
2052, 326, 328, 328, 329,
2055, 326, 328, 329, 329,
2057, 326, 327, 329, 329,
2059, 327, 328, 329, 328,
2062, 327, 328, 329, 330,
2064, 327, 328, 329, 328,
2066, 326, 327, 329, 329,
2069, 326, 327, 330, 328,
2071, 327, 329, 329, 330,
2073, 326, 329, 329, 330,
2076, 326, 328, 329, 330,
2078, 326, 328, 329, 329,
2080, 326, 329, 329, 329,
2083, 326, 329, 329, 333,
2085, 326, 328, 329, 330,
2087, 326, 328, 329, 329,
2091, 326, 328, 329, 330,
2093, 326, 328, 329, 329,
2095, 326, 328, 329, 330,
2098, 326, 328, 329, 330,
2100, 326, 327, 329, 330,
2102, 326, 328, 329, 330,
2104, 326, 328, 329, 330,
2107, 325, 328, 329, 330,
2109, 326, 329, 329, 330,
2111, 325, 328, 329, 328,
2114, 325, 328, 329, 330,
2116, 326, 330, 329, 329,
2118, 326, 327, 329, 330,
2121, 326, 329, 329, 330,
2123, 325, 328, 329, 329,
2125, 326, 328, 329, 328,
2128, 326, 328, 328, 329,
2130, 326, 328, 329, 329,
2132, 326, 328, 329, 329,
2136, 326, 329, 329, 329,
2138, 326, 327, 329, 330,
2140, 326, 328, 328, 330,
2143, 326, 328, 330, 330,
2145, 326, 326, 329, 329,
2147, 326, 328, 328, 331,
2150, 326, 328, 329, 331,
2152, 325, 328, 328, 330,
2154, 325, 328, 329, 330,
2157, 325, 328, 329, 330,
2159, 324, 328, 329, 329,
2161, 324, 327, 329, 331,
2164, 325, 326, 328, 330,
2166, 325, 327, 329, 329,
2168, 325, 328, 329, 330,
2171, 326, 327, 329, 331,
2173, 326, 327, 329, 330,
2176, 325, 326, 330, 330,
2179, 325, 328, 329, 330,
2181, 326, 327, 329, 331,
2183, 325, 327, 329, 330,
2185, 324, 328, 329, 332,
2188, 325, 327, 330, 329,
2190, 324, 328, 329, 329,
2192, 325, 327, 329, 330,
2195, 325, 327, 329, 330,
2197, 325, 327, 329, 330,
2199, 325, 328, 329, 330,
2202, 324, 328, 329, 331,
2204, 325, 327, 329, 331,
2206, 325, 327, 329, 330,
2209, 325, 328, 329, 330,
2211, 325, 328, 329, 330,
2213, 325, 327, 329, 330,
2216, 325, 328, 329, 331,
2219, 325, 329, 329, 332,
2221, 324, 328, 329, 331,
2224, 325, 328, 329, 332,
2226, 325, 328, 329, 330,
2228, 325, 328, 329, 331,
2231, 325, 327, 330, 331,
2233, 324, 328, 329, 330,
2235, 325, 327, 329, 331,
2238, 325, 327, 328, 331,
2240, 325, 327, 329, 331,
2242, 326, 327, 329, 330,
2245, 325, 328, 329, 332,
2247, 325, 327, 330, 331,
2249, 325, 326, 330, 331,
2252, 325, 326, 329, 331,
2254, 325, 327, 329, 330,
2256, 325, 327, 329, 331,
2259, 325, 327, 329, 330,
2262, 325, 327, 329, 330,
2264, 325, 327, 329, 330,
2267, 325, 327, 329, 331,
2269, 324, 327, 329, 332,
2271, 325, 326, 329, 330,
2273, 325, 327, 329, 330,
2276, 323, 328, 329, 330,
2278, 325, 328, 329, 328,
2280, 325, 327, 329, 330,
2283, 325, 327, 329, 329,
2285, 325, 327, 329, 330,
2287, 325, 328, 329, 328,
2290, 325, 328, 329, 330,
2292, 325, 328, 329, 331,
2294, 324, 328, 329, 330,
2297, 324, 328, 329, 329,
2299, 325, 328, 329, 330,
2301, 324, 328, 328, 330,
2305, 325, 327, 327, 329,
2307, 325, 328, 329, 329,
2309, 325, 328, 329, 329,
2312, 324, 328, 329, 330,
2314, 325, 327, 329, 330,
2316, 325, 327, 329, 329,
2319, 324, 328, 329, 329,
2321, 325, 328, 329, 329,
2323, 325, 327, 328, 330,
2326, 325, 327, 330, 328,
2328, 325, 327, 329, 329,
2330, 325, 329, 329, 329,
2333, 325, 329, 329, 330,
2335, 325, 328, 329, 330,
2337, 325, 328, 329, 330,
2340, 324, 328, 330, 328,
2342, 324, 328, 329, 330,
2344, 324, 329, 329, 331,
2348, 325, 328, 329, 329,
2350, 325, 328, 329, 328,
2352, 324, 329, 329, 328,
2355, 324, 328, 329, 329,
2357, 325, 328, 329, 329,
2359, 324, 328, 330, 329,
2361, 325, 328, 329, 332,
2364, 324, 330, 329, 328,
2366, 325, 329, 329, 330,
2368, 325, 328, 329, 329,
2371, 325, 329, 329, 329,
2373, 325, 329, 329, 327,
2375, 324, 328, 329, 327,
2378, 325, 329, 332, 326,
2380, 324, 329, 329, 327,
2382, 325, 328, 330, 327,
2385, 324, 329, 330, 328,
2387, 325, 328, 329, 329,
2390, 325, 328, 329, 329,
2393, 326, 328, 328, 329,
2395, 325, 332, 329, 329,
2397, 325, 329, 329, 328,
2400, 324, 329, 329, 329,
2402, 325, 329, 329, 329,
2404, 324, 329, 329, 329,
2407, 324, 330, 329, 329,
2409, 325, 329, 329, 330,
2411, 328, 329, 328, 329,
2414, 325, 329, 329, 329,
2416, 325, 330, 330, 329,
2418, 324, 329, 329, 330,
2421, 325, 329, 329, 330,
2423, 325, 329, 329, 329,
2425, 325, 329, 328, 329,
2428, 326, 330, 329, 329,
2430, 324, 329, 328, 328,
2433, 325, 329, 328, 329,
2436, 325, 328, 329, 329,
2438, 325, 330, 328, 329,
2440, 325, 329, 328, 328,
2443, 325, 328, 327, 329,
2445, 325, 329, 328, 328,
2447, 325, 329, 328, 328,
2449, 326, 329, 328, 328,
2452, 326, 329, 328, 330,
2454, 326, 329, 327, 330,
2456, 325, 329, 328, 329,
2459, 325, 329, 328, 329,
2461, 325, 329, 327, 328,
2463, 326, 329, 327, 330,
2466, 326, 329, 328, 329,
2468, 325, 329, 327, 328,
2470, 326, 329, 327, 328,
2473, 326, 329, 327, 328,
2476, 326, 328, 327, 329,
2478, 326, 327, 327, 329,
2481, 326, 327, 327, 329,
2483, 325, 328, 327, 328,
2485, 326, 328, 327, 328,
2488, 326, 328, 327, 329,
2490, 326, 328, 328, 329,
2492, 325, 329, 327, 328,
2495, 326, 329, 327, 329,
2497, 326, 328, 327, 329,
2499, 326, 328, 327, 329,
2502, 326, 329, 327, 328,
2504, 325, 329, 327, 328,
2506, 326, 329, 327, 327,
2509, 325, 328, 326, 329,
2511, 325, 328, 326, 328,
2513, 325, 329, 327, 328,
2516, 326, 329, 327, 329,
2519, 326, 329, 326, 329,
2521, 326, 328, 326, 329,
2524, 326, 329, 326, 327,
2526, 326, 328, 326, 328,
2528, 327, 329, 326, 329,
2531, 326, 328, 326, 329,
2533, 326, 328, 326, 328,
2535, 326, 329, 326, 328,
2537, 326, 329, 326, 329,
2540, 326, 329, 326, 330,
2542, 326, 329, 327, 329,
2544, 326, 328, 326, 328,
2547, 326, 329, 326, 328,
2549, 326, 328, 326, 327,
2551, 325, 328, 326, 327,
2554, 326, 328, 329, 328,
2556, 326, 329, 326, 327,
2558, 326, 328, 326, 327,
2562, 327, 329, 326, 328,
2564, 326, 328, 326, 328,
2566, 325, 329, 326, 328,
2569, 326, 328, 327, 328,
2571, 327, 331, 326, 328,
2573, 326, 328, 326, 329,
2576, 326, 328, 326, 328,
2578, 326, 329, 326, 328,
2580, 326, 328, 326, 327,
2583, 325, 329, 326, 328,
2585, 326, 328, 326, 328,
2587, 327, 328, 326, 328,
2590, 326, 329, 326, 328,
2592, 325, 329, 326, 327,
2594, 326, 329, 326, 328,
2597, 326, 328, 326, 328,
2599, 326, 327, 326, 328,
2601, 326, 329, 326, 327,
2605, 326, 329, 326, 328,
2607, 326, 328, 326, 328,
2609, 326, 327, 326, 328,
2612, 325, 329, 326, 328,
2614, 325, 329, 326, 327,
2616, 326, 329, 326, 329,
2619, 326, 327, 326, 328,
2621, 326, 328, 326, 328,
2623, 325, 328, 326, 328,
2625, 325, 328, 326, 328,
2628, 325, 328, 326, 328,
2630, 325, 328, 326, 328,
2632, 324, 328, 326, 328,
2635, 325, 330, 326, 327,
2637, 325, 328, 326, 329,
2639, 325, 328, 325, 330,
2642, 325, 328, 326, 328,
2644, 324, 328, 326, 328,
2647, 324, 328, 326, 329,
2650, 324, 328, 326, 329,
2652, 324, 328, 326, 327,
2654, 324, 328, 326, 328,
2657, 323, 328, 326, 328,
2659, 323, 327, 326, 328,
2661, 324, 328, 325, 328,
2664, 323, 327, 325, 328,
2666, 324, 327, 325, 327,
2668, 324, 328, 326, 327,
2671, 324, 328, 326, 328,
2673, 324, 327, 326, 327,
2675, 323, 328, 326, 327,
2678, 324, 327, 326, 328,
2680, 324, 328, 325, 328,
2682, 324, 328, 325, 328,
2685, 323, 327, 326, 328,
2688, 323, 327, 327, 327,
2690, 323, 328, 325, 327,
2693, 323, 328, 325, 327,
2695, 323, 328, 325, 327,
2697, 323, 328, 323, 326,
2700, 324, 328, 325, 327,
2702, 322, 328, 325, 326,
2704, 323, 328, 324, 327,
2707, 324, 327, 325, 327,
2709, 323, 328, 325, 327,
2711, 323, 328, 325, 327,
2713, 323, 327, 324, 327,
2716, 324, 328, 324, 327,
2718, 323, 327, 325, 326,
2720, 323, 328, 325, 327,
2723, 324, 328, 325, 328,
2725, 324, 328, 325, 328,
2727, 323, 328, 325, 327,
2731, 324, 327, 325, 327,
2733, 322, 327, 324, 326,
2735, 324, 327, 324, 327,
2738, 324, 327, 324, 327,
2740, 323, 326, 325, 327,
2742, 324, 327, 325, 325,
2745, 324, 328, 325, 326,
2747, 324, 328, 325, 327,
2749, 324, 326, 325, 327,
2752, 324, 326, 325, 326,
2754, 324, 328, 325, 326,
2756, 324, 327, 324, 327,
2759, 325, 327, 324, 326,
2761, 323, 327, 326, 326,
2763, 319, 328, 325, 326,
2766, 324, 328, 325, 326,
2768, 323, 327, 325, 328,
2770, 324, 327, 324, 326,
2774, 325, 327, 324, 326,
2776, 324, 326, 325, 327,
2778, 323, 328, 325, 324,
2781, 325, 327, 324, 327,
2783, 324, 327, 325, 326,
2785, 323, 327, 325, 326,
2788, 324, 327, 325, 326,
2790, 324, 327, 325, 327,
2792, 324, 327, 324, 326,
2794, 324, 327, 325, 326,
2797, 324, 326, 325, 326,
2799, 325, 327, 324, 327,
2801, 325, 327, 325, 326,
2804, 324, 326, 325, 326,
2806, 324, 327, 325, 326,
2808, 324, 326, 324, 325,
2811, 324, 327, 324, 327,
2813, 324, 326, 325, 326,
2816, 324, 326, 324, 329,
2819, 324, 327, 324, 326,
2821, 324, 327, 324, 326,
2823, 324, 326, 323, 327,
2826, 325, 327, 324, 326,
2828, 324, 327, 323, 326,
2830, 325, 327, 323, 326,
2833, 325, 327, 325, 326,
2835, 325, 326, 323, 326,
2837, 324, 327, 323, 326,
2840, 324, 326, 324, 326,
2842, 324, 327, 323, 326,
2844, 324, 327, 322, 327,
2847, 324, 327, 322, 326,
2849, 324, 327, 322, 326,
2851, 325, 327, 322, 326,
2854, 325, 327, 322, 326,
2856, 325, 327, 322, 326,
2859, 325, 327, 321, 326,
2862, 324, 328, 322, 326,
2864, 324, 328, 321, 325,
2866, 325, 327, 320, 326,
2869, 324, 327, 320, 326,
2871, 323, 327, 320, 325,
2873, 323, 326, 320, 325,
2876, 324, 327, 319, 326,
2878, 324, 327, 319, 326,
2880, 324, 327, 319, 326,
2882, 324, 327, 319, 325,
2885, 323, 327, 318, 325,
2887, 324, 327, 318, 326,
2889, 324, 326, 318, 326,
2892, 324, 327, 318, 325,
2894, 324, 327, 317, 326,
2896, 324, 327, 317, 325,
2899, 323, 327, 316, 326,
2902, 324, 326, 317, 326,
2904, 323, 327, 316, 326,
2907, 324, 328, 316, 325,
2909, 324, 327, 315, 326,
2911, 324, 327, 314, 326,
2914, 323, 326, 315, 326,
2916, 324, 327, 315, 325,
2918, 324, 326, 314, 326,
2921, 324, 327, 314, 325,
2923, 324, 326, 313, 326,
2925, 324, 326, 313, 326,
2928, 324, 326, 313, 325,
2930, 324, 327, 313, 324,
2932, 325, 326, 313, 326,
2935, 325, 325, 310, 325,
2937, 324, 326, 312, 325,
2939, 326, 326, 311, 325,
2942, 325, 326, 311, 326,
2945, 325, 326, 311, 326,
2947, 324, 325, 311, 325,
2950, 324, 326, 310, 326,
2952, 325, 325, 309, 326,
2954, 325, 326, 309, 326,
2957, 325, 325, 308, 325,
2959, 325, 325, 308, 325,
2961, 324, 326, 308, 325,
2964, 324, 326, 307, 326,
2966, 325, 326, 307, 326,
2968, 324, 326, 306, 325,
2970, 325, 326, 306, 325,
2973, 324, 327, 305, 325,
2975, 325, 325, 304, 326,
2977, 324, 326, 305, 326,
2980, 324, 325, 304, 327,
2982, 324, 326, 304, 326,
2984, 324, 325, 303, 327,
2988, 325, 325, 302, 327,
2990, 324, 325, 303, 326,
2992, 324, 325, 303, 328,
2995, 324, 325, 302, 327,
2997, 324, 325, 302, 327,
2999, 324, 325, 301, 326,
3002, 324, 325, 302, 326,
3004, 323, 325, 301, 326,
3006, 324, 325, 300, 325,
3009, 324, 325, 302, 326,
3011, 324, 325, 299, 326,
3013, 324, 325, 299, 326,
3016, 324, 326, 299, 326,
3018, 324, 325, 298, 327,
3020, 323, 324, 298, 326,
3023, 323, 324, 298, 326,
3025, 323, 328, 299, 325,
3027, 324, 325, 297, 326,
3031, 322, 325, 297, 325,
3033, 323, 324, 296, 326,
3035, 322, 324, 297, 326,
3038, 322, 325, 296, 326,
3040, 322, 324, 295, 325,
3042, 325, 323, 295, 326,
3045, 322, 324, 295, 325,
3047, 321, 325, 295, 326,
3049, 321, 325, 295, 324,
3052, 322, 324, 294, 326,
3054, 322, 323, 294, 326,
3056, 322, 324, 293, 326,
3058, 322, 324, 293, 326,
3061, 322, 324, 292, 327,
3063, 322, 323, 292, 326,
3065, 321, 324, 292, 326,
3068, 321, 324, 292, 325,
3070, 322, 324, 291, 326,
3073, 321, 323, 291, 327,
3076, 321, 323, 290, 326,
3078, 321, 324, 290, 326,
3080, 322, 324, 289, 325,
3083, 322, 324, 289, 327,
3085, 322, 323, 289, 326,
3087, 321, 322, 288, 326,
3090, 321, 323, 288, 326,
3092, 322, 322, 287, 325,
3094, 321, 322, 286, 326,
3097, 322, 323, 286, 326,
3099, 321, 323, 286, 326,
3101, 322, 323, 286, 325,
3104, 322, 324, 285, 327,
3106, 322, 323, 284, 326,
3108, 322, 324, 284, 326,
3111, 323, 323, 284, 327,
3113, 322, 324, 283, 326,
3116, 323, 323, 283, 327,
3119, 323, 323, 282, 326,
3121, 322, 323, 279, 326,
3123, 322, 323, 280, 326,
3126, 321, 323, 280, 327,
3128, 322, 323, 279, 327,
3130, 322, 322, 278, 326,
3133, 322, 323, 278, 327,
3135, 322, 323, 277, 326,
3137, 323, 322, 276, 327,
3140, 323, 322, 275, 326,
3142, 323, 322, 275, 326,
3144, 322, 323, 275, 326,
3146, 323, 322, 274, 327,
3149, 322, 323, 273, 327,
3151, 323, 322, 273, 327,
3153, 323, 322, 272, 326,
3156, 322, 322, 272, 327,
3159, 323, 322, 272, 327,
3161, 323, 322, 271, 327,
3164, 323, 322, 271, 326,
3166, 323, 322, 270, 326,
3168, 324, 321, 270, 327,
3171, 323, 322, 270, 327,
3173, 324, 323, 269, 327,
3175, 323, 321, 269, 327,
3178, 323, 322, 269, 327,
3180, 324, 321, 268, 327,
3182, 323, 321, 268, 327,
3185, 324, 321, 268, 327,
3187, 324, 320, 269, 327,
3189, 324, 321, 267, 326,
3192, 324, 321, 266, 328,
3194, 325, 320, 266, 326,
3196, 324, 321, 266, 326,
3200, 324, 321, 265, 326,
3202, 323, 325, 265, 327,
3204, 323, 320, 264, 327,
3207, 323, 320, 264, 327,
3209, 323, 321, 264, 326,
3211, 323, 321, 264, 326,
3214, 324, 320, 261, 326,
3216, 324, 320, 262, 327,
3218, 327, 321, 263, 327,
3221, 324, 320, 262, 326,
3223, 324, 320, 262, 327,
3225, 324, 320, 261, 328,
3228, 323, 321, 261, 327,
3230, 323, 319, 260, 327,
3232, 323, 320, 259, 326,
3234, 324, 320, 259, 327,
3237, 324, 320, 259, 327,
3239, 324, 319, 258, 327,
3241, 324, 320, 257, 327,
3245, 324, 321, 257, 326,
3247, 324, 321, 257, 328,
3249, 324, 320, 255, 328,
3252, 324, 319, 255, 327,
3254, 324, 321, 255, 327,
3256, 324, 321, 254, 327,
3259, 324, 321, 253, 324,
3261, 323, 321, 253, 323,
3263, 323, 321, 253, 323,
3266, 323, 321, 252, 324,
3268, 323, 320, 251, 326,
3270, 323, 320, 251, 327,
3273, 324, 320, 250, 326,
3275, 324, 320, 250, 327,
3277, 325, 321, 249, 325,
3280, 324, 321, 248, 327,
3282, 324, 321, 248, 327,
3284, 325, 321, 249, 327,
3288, 324, 321, 250, 328,
3290, 324, 321, 248, 328,
3292, 324, 321, 247, 328,
3295, 324, 320, 248, 327,
3297, 324, 320, 247, 327,
3299, 326, 321, 246, 328,
3302, 325, 321, 246, 328,
3304, 325, 319, 245, 328,
3306, 325, 320, 246, 327,
3309, 325, 321, 245, 327,
3311, 324, 321, 244, 328,
3313, 325, 321, 244, 328,
3316, 324, 320, 244, 328,
3318, 324, 321, 244, 327,
3320, 324, 321, 244, 327,
3322, 325, 320, 244, 327,
3325, 325, 321, 244, 327,
3328, 325, 321, 244, 327,
3330, 326, 321, 243, 327,
3333, 326, 321, 243, 328,
3335, 326, 320, 243, 328,
3337, 325, 320, 243, 327,
3340, 325, 320, 243, 327,
3342, 326, 320, 243, 328,
3344, 326, 320, 242, 328,
3347, 326, 320, 242, 327,
3349, 326, 320, 243, 327,
3351, 326, 320, 242, 327,
3354, 326, 320, 242, 326,
3356, 326, 320, 243, 328,
3358, 326, 319, 243, 327,
3361, 326, 320, 243, 327,
3363, 326, 321, 243, 327,
3365, 326, 320, 242, 328,
3368, 327, 320, 242, 327,
3371, 326, 319, 243, 327,
3373, 327, 320, 242, 326,
3376, 327, 321, 243, 328,
3378, 325, 321, 242, 328,
3380, 326, 319, 242, 327,
3383, 327, 320, 244, 327,
3385, 326, 321, 243, 326,
3387, 327, 320, 243, 328,
3390, 328, 320, 241, 327,
3392, 327, 320, 244, 327,
3394, 328, 321, 244, 327,
3397, 328, 320, 244, 327,
3399, 328, 321, 244, 328,
3401, 327, 320, 245, 327,
3403, 327, 320, 245, 327,
3406, 326, 320, 246, 326,
3408, 327, 319, 246, 327,
3410, 327, 320, 245, 327,
3414, 327, 320, 246, 327,
3416, 327, 320, 247, 327,
3418, 328, 320, 247, 327,
3421, 328, 320, 247, 328,
3423, 327, 320, 247, 327,
3425, 328, 320, 248, 327,
3428, 328, 320, 248, 327,
3430, 327, 320, 248, 326,
3432, 328, 320, 249, 328,
3435, 328, 320, 249, 327,
3437, 328, 320, 249, 327,
3439, 328, 320, 250, 327,
3442, 328, 320, 250, 328,
3444, 328, 319, 250, 327,
3446, 327, 320, 251, 329,
3449, 328, 320, 252, 327,
3451, 328, 319, 251, 328,
3453, 328, 319, 252, 328,
3457, 329, 320, 252, 327,
3459, 328, 320, 254, 327,
3461, 329, 320, 253, 326,
3464, 328, 321, 255, 327,
3466, 328, 320, 254, 327,
3468, 328, 320, 253, 327,
3471, 328, 321, 255, 326,
3473, 327, 321, 255, 327,
3475, 328, 320, 256, 327,
3478, 328, 320, 256, 327,
3480, 328, 324, 256, 327,
3482, 328, 322, 258, 326,
3485, 327, 320, 258, 327,
3487, 328, 321, 258, 327,
3489, 327, 321, 260, 327,
3491, 327, 321, 260, 326,
3494, 329, 321, 260, 328,
3496, 329, 320, 261, 328,
3499, 329, 321, 262, 326,
3502, 329, 321, 263, 326,
3504, 328, 321, 263, 326,
3506, 329, 321, 263, 326,
3509, 329, 321, 264, 327,
3511, 329, 320, 265, 327,
3513, 329, 321, 265, 326,
3516, 329, 322, 266, 326,
3518, 329, 321, 265, 327,
3520, 329, 321, 267, 327,
3523, 329, 320, 268, 326,
3525, 329, 321, 268, 326,
3527, 329, 321, 269, 326,
3530, 329, 321, 269, 327,
3532, 329, 322, 270, 327,
3534, 329, 322, 271, 327,
3537, 329, 322, 272, 327,
3539, 330, 321, 272, 328,
3542, 329, 321, 272, 327,
3545, 330, 321, 272, 326,
3547, 330, 322, 274, 326,
3549, 329, 322, 274, 325,
3552, 330, 321, 274, 327,
3554, 330, 322, 276, 327,
3556, 330, 321, 277, 327,
3559, 330, 323, 277, 327,
3561, 330, 322, 277, 327,
3563, 330, 322, 278, 327,
3566, 329, 321, 279, 327,
3568, 329, 320, 280, 326,
3570, 329, 322, 281, 327,
3573, 329, 322, 280, 327,
3575, 329, 322, 281, 327,
3577, 328, 322, 282, 326,
3579, 327, 321, 283, 327,
3582, 326, 321, 284, 326,
3585, 326, 321, 285, 327,
3587, 326, 322, 285, 326,
3590, 325, 322, 286, 326,
3592, 325, 322, 286, 326,
3594, 325, 322, 286, 326,
3597, 325, 322, 288, 326,
3599, 323, 322, 288, 326,
3601, 324, 322, 289, 326,
3604, 323, 322, 290, 326,
3606, 323, 322, 290, 326,
3608, 322, 322, 291, 326,
3611, 322, 322, 292, 326,
3613, 322, 322, 293, 326,
3615, 322, 322, 293, 327,
3618, 321, 322, 294, 326,
3620, 320, 322, 294, 326,
3622, 320, 322, 296, 327,
3625, 319, 323, 296, 324,
3628, 319, 323, 296, 325,
3630, 319, 322, 298, 326,
3633, 319, 322, 299, 326,
3635, 318, 323, 299, 325,
3637, 317, 322, 299, 326,
3640, 317, 322, 302, 326,
3642, 316, 322, 300, 326,
3644, 316, 321, 302, 326,
3647, 316, 323, 302, 326,
3649, 316, 322, 302, 327,
3651, 315, 322, 302, 325,
3654, 315, 323, 304, 326,
3656, 314, 326, 304, 325,
3658, 314, 323, 305, 326,
3661, 315, 322, 305, 326,
3663, 315, 322, 306, 326,
3665, 315, 323, 306, 326,
3667, 315, 323, 307, 326,
3671, 315, 322, 306, 326,
3673, 318, 322, 308, 326,
3675, 314, 323, 308, 325,
3678, 315, 324, 309, 326,
3680, 316, 323, 309, 327,
3682, 316, 322, 309, 326,
3685, 317, 322, 309, 326,
3687, 317, 323, 311, 326,
3689, 319, 323, 311, 326,
3692, 319, 323, 311, 327,
3694, 319, 322, 312, 326,
3696, 319, 323, 312, 326,
3699, 320, 323, 313, 326,
3701, 321, 323, 312, 327,
3703, 322, 322, 313, 326,
3706, 323, 323, 314, 326,
3708, 323, 323, 314, 326,
3710, 325, 323, 314, 326,
3714, 325, 323, 315, 327,
3716, 326, 323, 315, 326,
3718, 326, 323, 315, 326,
3721, 326, 322, 316, 326,
3723, 328, 323, 316, 327,
3725, 328, 323, 316, 328,
3728, 329, 323, 315, 326,
3730, 330, 323, 318, 326,
3732, 329, 323, 317, 325,
3735, 330, 323, 317, 326,
3737, 331, 323, 317, 326,
3739, 331, 323, 316, 326,
3742, 333, 323, 316, 326,
3744, 333, 325, 317, 325,
3746, 334, 324, 318, 326,
3749, 334, 323, 318, 326,
3751, 335, 322, 318, 326,
3753, 335, 324, 318, 326,
3756, 336, 323, 318, 326,
3759, 337, 323, 318, 326,
3761, 337, 324, 319, 326,
3763, 338, 324, 320, 324,
3766, 339, 324, 319, 326,
3768, 340, 323, 319, 327,
3770, 340, 322, 320, 326,
3773, 342, 323, 320, 326,
3775, 342, 324, 320, 326,
3777, 344, 323, 320, 324,
3780, 346, 324, 320, 326,
3782, 347, 323, 321, 325,
3784, 349, 324, 321, 325,
3787, 349, 325, 321, 326,
3789, 350, 324, 320, 326,
3791, 351, 323, 321, 326,
3794, 352, 324, 322, 326,
3796, 353, 323, 322, 325,
3799, 355, 325, 321, 326,
3802, 357, 325, 321, 327,
3804, 357, 325, 321, 326,
3806, 358, 325, 322, 326,
3809, 359, 325, 322, 325,
3811, 360, 325, 322, 327,
3813, 361, 324, 322, 326,
3816, 362, 324, 323, 326,
3818, 363, 325, 323, 326,
3820, 366, 325, 323, 326,
3823, 366, 325, 323, 327,
3825, 367, 325, 323, 327,
3827, 367, 324, 324, 326,
3830, 369, 325, 324, 327,
3832, 370, 325, 325, 327,
3834, 371, 325, 324, 327,
3837, 371, 324, 325, 326,
3840, 372, 324, 325, 326,
3842, 373, 324, 325, 327,
3844, 373, 324, 324, 326,
3847, 374, 325, 326, 326,
3849, 377, 325, 326, 326,
3851, 375, 324, 326, 327,
3854, 374, 325, 326, 325,
3856, 376, 324, 327, 327,
3858, 376, 324, 327, 327,
3861, 376, 324, 327, 327,
3863, 377, 324, 327, 326,
3865, 378, 324, 328, 327,
3868, 378, 324, 328, 327,
3870, 378, 324, 328, 326,
3872, 378, 325, 329, 326,
3875, 378, 324, 329, 327,
3877, 377, 324, 329, 325,
3879, 376, 325, 330, 327,
3883, 377, 324, 331, 326,
3885, 376, 325, 331, 325,
3887, 377, 324, 330, 328,
3890, 377, 325, 331, 327,
3892, 377, 324, 330, 326,
3894, 376, 325, 331, 326,
3897, 376, 325, 332, 326,
3899, 376, 325, 332, 327,
3901, 376, 324, 332, 330,
3904, 375, 324, 333, 326,
3906, 375, 325, 333, 327,
3908, 375, 325, 333, 327,
3911, 374, 325, 333, 327,
3913, 374, 324, 334, 327,
3915, 373, 324, 335, 326,
3918, 373, 325, 337, 327,
3920, 373, 325, 334, 328,
3922, 372, 324, 335, 327,
3926, 371, 325, 335, 326,
3928, 370, 325, 335, 326,
3930, 370, 325, 335, 326,
3932, 370, 325, 336, 327,
3935, 369, 324, 336, 327,
3937, 369, 325, 336, 326,
3939, 368, 325, 336, 326,
3942, 368, 325, 335, 327,
3944, 368, 324, 336, 327,
3946, 366, 325, 336, 327,
3949, 365, 325, 336, 327,
3951, 367, 325, 336, 328,
3953, 364, 325, 337, 327,
3956, 364, 324, 336, 327,
3958, 363, 325, 337, 327,
3960, 363, 325, 337, 326,
3963, 362, 325, 337, 327,
3965, 362, 324, 337, 327,
3968, 362, 325, 338, 327,
3971, 361, 326, 338, 326,
3973, 359, 326, 338, 326,
3975, 359, 325, 338, 328,
3978, 359, 325, 338, 327,
3980, 358, 325, 338, 327,
3982, 358, 325, 339, 327,
3985, 358, 325, 338, 326,
3987, 357, 325, 339, 328,
3989, 356, 325, 340, 327,
3992, 356, 324, 339, 328,
3994, 356, 325, 339, 328,
3996, 355, 325, 339, 327,
3999, 354, 325, 338, 328,
4001, 353, 325, 340, 327,
4003, 351, 325, 340, 326,
4006, 351, 325, 340, 328,
4008, 351, 325, 340, 328,
4011, 351, 324, 341, 328,
4013, 350, 325, 341, 328,
4016, 350, 325, 340, 327,
4018, 350, 325, 340, 328,
4020, 349, 324, 341, 328,
4023, 348, 323, 341, 328,
4025, 348, 324, 341, 327,
4027, 347, 325, 341, 328,
4030, 347, 325, 341, 328,
4032, 346, 325, 342, 328,
4034, 345, 325, 342, 327,
4037, 345, 324, 342, 328,
4039, 345, 325, 342, 329,
4041, 344, 325, 343, 328,
4044, 344, 325, 341, 328,
4046, 343, 325, 343, 327,
4048, 343, 325, 344, 328,
4051, 342, 325, 343, 328,
4054, 341, 325, 344, 328,
4056, 341, 325, 344, 327,
4059, 340, 326, 345, 327,
4061, 340, 326, 345, 328,
4063, 339, 325, 344, 328,
4066, 339, 325, 345, 328,
4068, 338, 324, 346, 328,
4070, 337, 325, 345, 329,
4073, 337, 326, 346, 328,
4075, 337, 326, 345, 328,
4077, 336, 326, 347, 331,
4080, 335, 326, 346, 327,
4082, 335, 326, 347, 328,
4084, 335, 326, 346, 328,
4087, 335, 326, 346, 328,
4089, 334, 326, 347, 328,
4091, 333, 327, 348, 328,
4094, 333, 326, 351, 329,
4097, 333, 326, 348, 329,
4099, 332, 326, 349, 328,
4101, 333, 326, 349, 329,
4104, 332, 326, 348, 329,
4106, 331, 326, 348, 328,
4108, 331, 327, 350, 328,
4111, 331, 331, 350, 329,
4113, 331, 326, 350, 328,
4115, 331, 327, 350, 328,
4118, 330, 326, 350, 328,
4120, 330, 327, 351, 328,
4122, 330, 327, 351, 328,
4125, 328, 328, 351, 327,
4127, 331, 327, 351, 329,
4129, 328, 326, 351, 329,
4132, 327, 327, 352, 328,
4134, 327, 327, 352, 328,
4136, 327, 327, 352, 329,
4140, 327, 327, 352, 329,
4142, 326, 327, 352, 329,
4144, 326, 327, 353, 329,
4147, 326, 327, 353, 329,
4149, 326, 327, 353, 330,
4151, 324, 328, 353, 329,
4154, 325, 327, 354, 328,
4156, 324, 327, 353, 327,
4158, 324, 328, 354, 329,
4161, 324, 327, 354, 329,
4163, 324, 327, 353, 328,
4165, 324, 328, 355, 328,
4168, 324, 329, 359, 329,
4170, 323, 327, 354, 329,
4172, 323, 327, 355, 329,
4175, 323, 326, 355, 328,
4177, 322, 327, 355, 329,
4179, 323, 328, 355, 329,
4183, 322, 327, 355, 329,
4185, 322, 328, 356, 329,
4187, 322, 328, 356, 328,
4189, 321, 327, 356, 329,
4192, 321, 328, 356, 330,
4194, 321, 327, 356, 329,
4196, 320, 328, 356, 329,
4199, 320, 328, 356, 328,
4201, 321, 327, 356, 327,
4203, 320, 327, 357, 329,
4206, 319, 328, 357, 328,
4208, 320, 328, 357, 328,
4210, 320, 328, 357, 328,
4213, 319, 327, 357, 327,
4215, 319, 328, 357, 329,
4217, 318, 328, 358, 328,
4220, 318, 327, 358, 328,
4222, 319, 328, 357, 329,
4225, 318, 328, 358, 328,
4228, 318, 327, 357, 329,
4230, 317, 328, 359, 328,
4232, 317, 328, 358, 327,
4235, 316, 328, 358, 328,
4237, 315, 328, 358, 329,
4239, 315, 327, 359, 328,
4242, 315, 327, 359, 329,
4244, 315, 329, 359, 328,
4246, 315, 327, 359, 329,
4249, 315, 327, 358, 329,
4251, 315, 327, 360, 329,
4253, 315, 329, 360, 333,
4256, 316, 328, 359, 330,
4258, 317, 328, 359, 328,
4260, 317, 327, 360, 329,
4263, 316, 328, 360, 327,
4265, 317, 328, 359, 329,
4268, 317, 328, 360, 330,
4271, 318, 327, 360, 330,
4273, 318, 327, 360, 329,
4275, 318, 328, 360, 328,
4277, 318, 328, 360, 329,
4280, 319, 328, 360, 329,
4282, 319, 327, 361, 328,
4284, 320, 328, 360, 329,
4287, 319, 332, 360, 329,
4289, 320, 327, 360, 330,
4291, 320, 327, 361, 329,
4294, 320, 327, 360, 329,
4296, 320, 328, 360, 329,
4298, 321, 328, 359, 329,
4301, 321, 328, 360, 330,
4303, 324, 328, 360, 329,
4305, 321, 327, 361, 329,
4308, 321, 328, 361, 328,
4311, 322, 328, 360, 330,
4313, 322, 327, 361, 329,
4316, 322, 328, 361, 330,
4318, 322, 328, 361, 329,
4320, 322, 328, 360, 328,
4323, 322, 328, 360, 329,
4325, 322, 327, 360, 329,
4327, 321, 328, 361, 329,
4330, 322, 328, 361, 329,
4332, 322, 328, 361, 328,
4334, 323, 327, 360, 328,
4337, 322, 327, 360, 329,
4339, 323, 326, 362, 328,
4341, 323, 328, 361, 329,
4344, 323, 327, 361, 329,
4346, 323, 327, 361, 329,
4348, 324, 328, 360, 329,
4352, 323, 328, 361, 329,
4354, 322, 328, 361, 329,
4356, 322, 328, 360, 331,
4359, 322, 327, 361, 329,
4361, 322, 328, 361, 328,
4363, 322, 328, 361, 328,
4365, 321, 328, 360, 329,
4368, 322, 328, 361, 329,
4370, 322, 328, 361, 329,
4372, 322, 328, 362, 329,
4375, 322, 328, 360, 330,
4377, 322, 328, 361, 329,
4379, 320, 328, 361, 329,
4382, 321, 328, 361, 329,
4384, 320, 328, 361, 329,
4386, 321, 328, 360, 330,
4389, 320, 327, 361, 329,
4391, 320, 328, 361, 329,
4393, 320, 328, 361, 328,
4397, 319, 329, 361, 328,
4399, 320, 327, 360, 329,
4401, 320, 328, 360, 329,
4404, 319, 327, 361, 329,
4406, 319, 329, 361, 329,
4408, 319, 327, 360, 330,
4411, 319, 328, 360, 329,
4413, 320, 327, 361, 329,
4415, 319, 328, 360, 329,
4418, 320, 328, 360, 329,
4420, 320, 328, 360, 330,
4422, 319, 327, 361, 329,
4425, 320, 327, 361, 328,
4427, 320, 328, 360, 329,
4429, 319, 328, 360, 330,
4432, 320, 328, 360, 329,
4434, 320, 328, 360, 329,
4436, 319, 328, 360, 328,
4440, 319, 328, 360, 329,
4442, 320, 328, 359, 329,
4444, 320, 328, 360, 329,
4447, 320, 328, 360, 329,
4449, 320, 328, 360, 328,
4451, 320, 328, 359, 329,
4453, 320, 328, 360, 329,
4456, 320, 327, 360, 329,
4458, 320, 328, 360, 328,
4460, 320, 328, 360, 329,
4463, 320, 328, 360, 328,
4465, 321, 327, 359, 329,
4467, 320, 327, 359, 329,
4470, 320, 328, 359, 328,
4472, 319, 328, 359, 327,
4474, 319, 327, 358, 329,
4477, 320, 327, 359, 329,
4480, 320, 327, 359, 329,
4482, 320, 327, 359, 328,
4485, 319, 328, 359, 329,
4487, 319, 327, 358, 329,
4489, 318, 328, 359, 329,
4492, 319, 325, 358, 329,
4494, 319, 328, 358, 330,
4496, 318, 328, 358, 329,
4499, 318, 328, 358, 329,
4501, 318, 327, 359, 329,
4503, 317, 328, 358, 329,
4506, 316, 328, 358, 329,
4508, 315, 328, 358, 329,
4510, 316, 328, 357, 329,
4513, 316, 328, 358, 328,
4515, 316, 329, 358, 328,
4517, 316, 328, 357, 329,
4520, 316, 328, 358, 329,
4523, 315, 327, 357, 329,
4525, 315, 329, 357, 328,
4528, 315, 328, 357, 329,
4530, 314, 329, 357, 329,
4532, 315, 328, 358, 331,
4535, 313, 329, 357, 328,
4537, 314, 329, 357, 329,
4539, 314, 328, 357, 330,
4541, 312, 329, 357, 328,
4544, 313, 328, 357, 328,
4546, 313, 328, 357, 328,
4548, 313, 329, 359, 329,
4551, 313, 328, 357, 329,
4553, 313, 328, 357, 328,
4555, 313, 329, 356, 328,
4558, 312, 329, 356, 328,
4560, 313, 328, 356, 328,
4562, 312, 328, 355, 328,
4566, 312, 328, 356, 328,
4568, 312, 329, 356, 328,
4570, 311, 329, 356, 329,
4573, 311, 329, 356, 329,
4575, 311, 329, 356, 328,
4577, 311, 329, 356, 328,
4580, 310, 329, 356, 328,
4582, 311, 328, 354, 328,
4584, 310, 327, 356, 328,
4587, 310, 329, 355, 328,
4589, 311, 328, 356, 328,
4591, 312, 328, 355, 327,
4594, 313, 328, 355, 329,
4596, 312, 328, 355, 328,
4598, 312, 329, 355, 328,
4601, 313, 329, 355, 329,
4603, 314, 328, 354, 328,
4605, 313, 328, 354, 328,
4609, 313, 328, 355, 328,
4611, 313, 329, 354, 328,
4613, 313, 329, 354, 328,
4616, 313, 329, 353, 328,
4618, 313, 329, 353, 328,
4620, 313, 329, 353, 328,
4622, 314, 329, 353, 329,
4625, 312, 329, 353, 328,
4627, 314, 329, 353, 328,
4629, 314, 328, 353, 328,
4632, 315, 329, 352, 328,
4634, 315, 329, 352, 327,
4636, 316, 329, 352, 329,
4639, 316, 330, 352, 329,
4641, 316, 329, 352, 328,
4643, 316, 329, 352, 328,
4646, 317, 329, 352, 329,
4648, 317, 329, 352, 329,
4651, 317, 329, 351, 328,
4654, 317, 328, 353, 328,
4656, 318, 329, 351, 327,
4658, 318, 329, 351, 329,
4661, 318, 329, 350, 328,
4663, 318, 328, 351, 328,
4665, 318, 329, 351, 327,
4668, 318, 329, 350, 327,
4670, 318, 329, 350, 328,
4672, 318, 328, 351, 328,
4675, 318, 328, 351, 327,
4677, 319, 330, 351, 327,
4679, 319, 329, 350, 328,
4682, 319, 329, 350, 328,
4684, 318, 329, 350, 329,
4686, 319, 328, 350, 327,
4689, 319, 330, 350, 327,
4691, 318, 329, 350, 329,
4694, 318, 329, 350, 328,
4697, 318, 329, 350, 328,
4699, 318, 329, 350, 327,
4701, 319, 329, 350, 326,
4704, 318, 329, 350, 328,
4706, 319, 329, 350, 328,
4708, 318, 329, 350, 330,
4710, 319, 329, 350, 328,
4713, 319, 329, 349, 328,
4715, 318, 328, 349, 328,
4717, 318, 329, 349, 327,
4720, 318, 327, 349, 328,
4722, 319, 329, 349, 328,
4724, 318, 328, 350, 329,
4727, 318, 328, 349, 328,
4729, 318, 329, 349, 328,
4731, 318, 329, 349, 327,
4734, 317, 329, 349, 329,
4737, 317, 327, 348, 328,
4739, 316, 328, 349, 328,
4742, 316, 331, 349, 328,
4744, 316, 329, 348, 327,
4746, 315, 328, 348, 329,
4749, 316, 328, 349, 328,
4751, 315, 328, 349, 328,
4753, 314, 329, 348, 328,
4756, 315, 329, 348, 329,
4758, 318, 329, 348, 329,
4760, 314, 329, 348, 329,
4763, 315, 329, 349, 327,
4765, 314, 329, 348, 329,
4767, 314, 329, 348, 330,
4770, 314, 329, 348, 328,
4772, 314, 328, 348, 328,
4774, 314, 328, 348, 328,
4777, 313, 329, 347, 329,
4780, 314, 329, 348, 329,
4782, 313, 328, 347, 329,
4785, 314, 329, 347, 328,
4787, 312, 328, 346, 328,
4789, 314, 328, 347, 329,
4792, 313, 327, 347, 328,
4794, 313, 327, 347, 329,
4796, 313, 328, 346, 328,
4798, 313, 328, 346, 329,
4801, 313, 328, 346, 329,
4803, 313, 328, 346, 329,
4805, 312, 328, 346, 328,
4808, 312, 329, 346, 328,
4810, 313, 328, 345, 330,
4812, 312, 327, 345, 329,
4815, 312, 328, 345, 329,
4817, 312, 328, 345, 328,
4819, 312, 328, 345, 328,
4823, 312, 328, 345, 329,
4825, 311, 328, 345, 329,
4827, 311, 328, 345, 329,
4830, 311, 329, 345, 329,
4832, 311, 328, 344, 330,
4834, 311, 328, 344, 329,
4837, 311, 327, 344, 329,
4839, 311, 327, 345, 329,
4841, 311, 327, 344, 330,
4844, 311, 327, 345, 329,
4846, 311, 327, 343, 329,
4848, 311, 328, 344, 329,
4851, 310, 327, 344, 329,
4853, 310, 328, 344, 328,
4855, 310, 328, 342, 329,
4858, 310, 327, 343, 329,
4860, 310, 327, 343, 329,
4862, 310, 328, 343, 328,
4866, 310, 328, 343, 330,
4868, 309, 327, 343, 329,
4870, 309, 327, 343, 329,
4873, 309, 328, 343, 329,
4875, 310, 328, 342, 330,
4877, 310, 328, 343, 330,
4880, 310, 329, 343, 329,
4882, 310, 329, 343, 329,
4884, 311, 328, 342, 330,
4886, 311, 328, 342, 330,
4889, 311, 329, 342, 329,
4891, 311, 328, 343, 329,
4893, 311, 328, 342, 329,
4896, 311, 329, 342, 328,
4898, 312, 328, 342, 330,
4900, 312, 328, 343, 329,
4903, 312, 329, 342, 329,
4905, 313, 329, 342, 329,
4908, 313, 329, 342, 330,
4911, 314, 329, 341, 330,
4913, 314, 329, 342, 329,
4915, 313, 329, 342, 329,
4918, 313, 329, 342, 330,
4920, 314, 329, 342, 330,
4922, 314, 329, 341, 329,
4925, 314, 329, 342, 329,
4927, 314, 330, 342, 328,
4929, 315, 329, 340, 331,
4932, 315, 329, 342, 329,
4934, 315, 329, 343, 329,
4936, 315, 329, 342, 329,
4939, 315, 330, 342, 330,
4941, 315, 330, 342, 329,
4943, 315, 330, 342, 330,
4946, 315, 328, 342, 330,
4948, 315, 330, 343, 329,
4951, 316, 330, 343, 330,
4954, 315, 331, 342, 330,
4956, 315, 330, 342, 330,
4958, 315, 331, 344, 329,
4961, 316, 331, 343, 330,
4963, 316, 332, 343, 331,
4965, 316, 332, 343, 330,
4968, 316, 332, 343, 329,
4970, 316, 332, 343, 330,
4972, 315, 332, 343, 328,
4974, 315, 332, 343, 330,
4977, 316, 332, 343, 330,
4979, 317, 332, 344, 329,
4981, 316, 333, 344, 330,
4984, 315, 333, 344, 330,
4986, 316, 332, 344, 331,
4988, 316, 333, 345, 330,
4992, 316, 333, 345, 329,
4994, 316, 333, 344, 330,
4996, 315, 333, 345, 330,
4999, 315, 333, 344, 329,
5001, 315, 333, 346, 329,
5003, 316, 333, 349, 330,
5006, 316, 333, 345, 330,
5008, 317, 333, 346, 330,
5010, 316, 332, 347, 329,
5013, 317, 334, 347, 329,
5015, 318, 334, 347, 328,
5017, 318, 332, 347, 330,
5020, 318, 333, 348, 329,
5022, 317, 332, 349, 329,
5024, 317, 333, 349, 329,
5027, 318, 333, 350, 330,
5029, 319, 333, 350, 330,
5031, 319, 332, 351, 329,
5035, 319, 331, 352, 328,
5037, 316, 331, 352, 329,
5039, 320, 331, 353, 330,
5042, 320, 331, 353, 329,
5044, 320, 332, 353, 329,
5046, 320, 333, 354, 329,
5049, 320, 332, 354, 329,
5051, 321, 332, 355, 329,
5053, 321, 332, 355, 329,
5056, 321, 332, 355, 329,
5058, 321, 334, 355, 329,
5060, 321, 332, 355, 329,
5062, 321, 332, 355, 329,
5065, 321, 333, 356, 328,
5067, 321, 333, 356, 329,
5069, 321, 332, 356, 329,
5072, 322, 332, 357, 330,
5074, 322, 333, 357, 329,
5076, 322, 332, 358, 329,
5080, 323, 333, 358, 328,
5082, 323, 332, 358, 330,
5084, 323, 331, 360, 329,
5087, 324, 332, 358, 329,
5089, 324, 332, 360, 329,
5091, 325, 332, 360, 328,
5094, 325, 332, 361, 329,
5096, 326, 331, 361, 329,
5098, 325, 332, 362, 329,
5101, 325, 333, 363, 329,
5103, 325, 332, 363, 330,
5105, 325, 331, 362, 329,
5108, 326, 331, 364, 329,
5110, 326, 331, 364, 329,
5112, 327, 330, 364, 329,
5115, 327, 330, 365, 329,
5117, 327, 330, 366, 329,
5120, 328, 330, 366, 329,
5123, 327, 330, 367, 329,
5125, 327, 331, 367, 327,
5127, 328, 331, 367, 329,
5130, 329, 331, 368, 329,
5132, 329, 331, 367, 328,
5134, 330, 332, 368, 329,
5137, 330, 330, 368, 329,
5139, 329, 331, 368, 330,
5141, 331, 330, 370, 329,
5144, 331, 330, 369, 328,
5146, 332, 330, 369, 329,
5148, 332, 330, 369, 329,
5150, 332, 331, 370, 328,
5153, 333, 330, 370, 328,
5155, 333, 331, 369, 327,
5157, 333, 331, 370, 330,
5160, 333, 330, 371, 328,
5163, 334, 330, 372, 331,
5165, 335, 331, 372, 328,
5168, 335, 331, 372, 328,
5170, 335, 330, 372, 329,
5172, 336, 330, 372, 329,
5175, 336, 330, 372, 328,
5177, 336, 331, 372, 327,
5179, 337, 331, 376, 329,
5182, 338, 331, 373, 329,
5184, 338, 330, 373, 329,
5186, 337, 331, 375, 328,
5189, 339, 331, 375, 328,
5191, 339, 331, 374, 328,
5193, 338, 330, 374, 328,
5196, 339, 335, 374, 328,
5198, 338, 332, 374, 328,
5200, 339, 331, 374, 327,
5203, 339, 331, 374, 328,
5206, 339, 331, 374, 328,
5208, 338, 332, 375, 328,
5211, 339, 332, 375, 327,
5213, 344, 330, 375, 328,
5215, 340, 331, 375, 328,
5218, 339, 330, 376, 328,
5220, 339, 330, 375, 327,
5222, 340, 331, 375, 328,
5225, 340, 330, 376, 328,
5227, 340, 330, 376, 328,
5229, 340, 331, 376, 327,
5231, 341, 330, 376, 328,
5234, 341, 330, 376, 328,
5236, 340, 329, 376, 327,
5238, 340, 330, 376, 327,
5241, 340, 330, 376, 327,
5243, 340, 329, 376, 326,
5245, 341, 328, 376, 327,
5249, 341, 329, 377, 327,
5251, 340, 330, 377, 327,
5253, 340, 331, 377, 325,
5256, 340, 331, 377, 327,
5258, 340, 330, 376, 327,
5260, 338, 331, 377, 327,
5263, 338, 330, 378, 327,
5265, 338, 331, 377, 327,
5267, 337, 331, 378, 328,
5270, 336, 332, 378, 327,
5272, 335, 332, 378, 327,
5274, 334, 331, 377, 326,
5277, 333, 332, 377, 326,
5279, 333, 331, 376, 327,
5281, 332, 330, 375, 327,
5284, 332, 332, 376, 327,
5286, 332, 331, 376, 326,
5288, 331, 330, 375, 328,
5292, 330, 331, 376, 327,
5294, 329, 330, 377, 327,
5296, 328, 331, 376, 327,
5299, 328, 331, 376, 328,
5301, 327, 331, 375, 328,
5303, 326, 331, 376, 327,
5306, 326, 331, 377, 327,
5308, 324, 332, 376, 327,
5310, 323, 331, 377, 327,
5313, 322, 330, 377, 328,
5315, 321, 330, 377, 328,
5317, 321, 331, 376, 327,
5319, 320, 331, 375, 328,
5322, 319, 331, 375, 328,
5324, 318, 330, 375, 327,
5326, 318, 331, 376, 327,
5329, 317, 330, 376, 327,
5331, 316, 330, 376, 328,
5334, 315, 330, 376, 327,
5337, 315, 330, 376, 327,
5339, 314, 330, 376, 329,
5341, 314, 330, 375, 328,
5344, 314, 331, 375, 328,
5346, 313, 331, 375, 327,
5348, 312, 331, 375, 326,
5351, 311, 331, 375, 326,
5353, 311, 331, 375, 326,
5355, 311, 330, 376, 326,
5358, 311, 331, 375, 326,
5360, 311, 330, 376, 326,
5362, 311, 331, 375, 326,
5365, 309, 331, 375, 327,
5367, 309, 331, 375, 326,
5369, 309, 332, 375, 326,
5372, 309, 335, 375, 326,
5374, 310, 331, 375, 326,
5377, 309, 331, 375, 326,
5380, 310, 331, 376, 326,
5382, 310, 331, 377, 325,
5384, 310, 332, 376, 326,
5387, 310, 331, 375, 326,
5389, 313, 331, 375, 326,
5391, 311, 331, 373, 325,
5394, 311, 331, 375, 325,
5396, 310, 331, 376, 323,
5398, 311, 330, 375, 325,
5401, 311, 330, 376, 324,
5403, 311, 331, 375, 325,
5405, 312, 331, 375, 324,
5407, 312, 331, 374, 325,
5410, 313, 331, 373, 325,
5412, 313, 332, 374, 325,
5414, 313, 332, 374, 324,
5417, 314, 331, 374, 326,
5420, 313, 331, 374, 326,
5422, 313, 332, 375, 325,
5425, 313, 331, 375, 326,
5427, 313, 331, 374, 325,
5429, 314, 331, 374, 326,
5432, 314, 332, 374, 326,
5434, 313, 332, 373, 326,
5436, 313, 332, 374, 326,
5439, 312, 331, 373, 326,
5441, 312, 331, 372, 327,
5443, 311, 332, 373, 327,
5446, 311, 332, 373, 326,
5448, 310, 332, 373, 327,
5450, 310, 331, 372, 328,
5453, 311, 332, 373, 328,
5455, 310, 331, 374, 328,
5457, 310, 332, 375, 328,
5460, 310, 333, 374, 328,
5463, 311, 332, 374, 330,
5465, 310, 331, 374, 329,
5468, 310, 331, 372, 328,
5470, 310, 332, 373, 328,
5472, 310, 332, 373, 327,
5475, 311, 330, 372, 328,
5477, 311, 331, 373, 328,
5479, 311, 330, 372, 328,
5482, 311, 331, 372, 329,
5484, 311, 331, 372, 329,
5486, 311, 331, 372, 329,
5489, 311, 332, 372, 328,
5491, 311, 332, 371, 328,
5493, 313, 332, 371, 329,
5495, 313, 331, 371, 328,
5498, 313, 332, 372, 329,
5500, 313, 332, 373, 328,
5502, 313, 332, 373, 328,
5506, 312, 332, 372, 329,
5508, 313, 332, 372, 329,
5510, 312, 331, 371, 328,
5513, 313, 333, 370, 328,
5515, 313, 332, 370, 329,
5517, 314, 332, 369, 329,
5520, 315, 332, 370, 328,
5522, 315, 332, 370, 328,
5524, 315, 332, 370, 327,
5527, 317, 333, 369, 328,
5529, 317, 332, 369, 327,
5531, 316, 332, 370, 327,
5534, 317, 330, 372, 327,
5536, 318, 331, 370, 327,
5538, 318, 331, 370, 328,
5541, 319, 331, 370, 327,
5543, 319, 332, 370, 325,
5545, 319, 332, 369, 326,
5549, 319, 333, 369, 327,
5551, 320, 332, 368, 327,
5553, 320, 332, 368, 327,
5556, 320, 332, 369, 326,
5558, 321, 332, 369, 326,
5560, 322, 332, 368, 326,
5563, 322, 332, 369, 326,
5565, 324, 332, 369, 326,
5567, 322, 331, 369, 326,
5570, 322, 332, 368, 326,
5572, 322, 332, 368, 327,
5574, 323, 332, 368, 326,
5577, 323, 331, 368, 326,
5579, 322, 332, 368, 326,
5581, 323, 332, 368, 327,
5583, 323, 331, 368, 325,
5586, 324, 331, 369, 325,
5588, 324, 332, 368, 326,
5591, 324, 332, 368, 326,
5594, 323, 332, 367, 326,
5596, 325, 331, 368, 326,
5598, 325, 332, 367, 326,
5601, 325, 333, 367, 325,
5603, 326, 331, 366, 326,
5605, 326, 331, 367, 325,
5608, 326, 331, 367, 325,
5610, 326, 331, 366, 326,
5612, 326, 331, 366, 326,
5615, 327, 332, 366, 327,
5617, 327, 331, 365, 329,
5619, 327, 332, 366, 326,
5622, 327, 332, 365, 327,
5624, 326, 332, 365, 324,
5626, 327, 331, 365, 326,
5629, 327, 332, 365, 325,
5632, 326, 332, 365, 326,
5634, 327, 332, 367, 327,
5637, 326, 331, 364, 326,
5639, 326, 332, 364, 326,
5641, 325, 330, 365, 326,
5644, 325, 330, 365, 326,
5646, 325, 330, 365, 326,
5648, 324, 331, 364, 326,
5651, 323, 330, 364, 326,
5653, 323, 331, 364, 326,
5655, 322, 331, 364, 325,
5658, 323, 331, 363, 326,
5660, 322, 331, 363, 326,
5662, 322, 331, 363, 325,
5665, 322, 332, 363, 326,
5667, 319, 330, 363, 325,
5669, 321, 331, 362, 327,
5671, 320, 331, 363, 326,
5675, 320, 331, 362, 326,
5677, 320, 331, 362, 325,
5679, 320, 331, 362, 326,
5682, 319, 332, 361, 326,
5684, 319, 332, 362, 326,
5686, 318, 332, 362, 326,
5689, 319, 331, 361, 326,
5691, 319, 331, 361, 326,
5693, 319, 331, 361, 326,
5696, 320, 331, 362, 326,
5698, 319, 331, 361, 326,
5700, 319, 331, 361, 325,
5703, 319, 331, 360, 326,
5705, 319, 330, 360, 326,
5707, 320, 330, 360, 326,
5710, 319, 330, 360, 326,
5712, 319, 329, 360, 327,
5714, 319, 329, 360, 326,
5718, 319, 329, 361, 326,
5720, 319, 330, 361, 325,
5722, 318, 330, 360, 327,
5725, 319, 331, 360, 326,
5727, 318, 331, 359, 326,
5729, 318, 330, 360, 326,
5732, 317, 332, 359, 326,
5734, 318, 331, 358, 328,
5736, 318, 331, 358, 326,
5739, 318, 331, 356, 326,
5741, 318, 331, 357, 326,
5743, 318, 332, 357, 326,
5746, 318, 331, 357, 327,
5748, 319, 331, 357, 326,
5750, 318, 331, 358, 326,
5753, 319, 331, 357, 327,
5755, 319, 332, 356, 327,
5757, 319, 332, 356, 327,
5760, 319, 331, 356, 326,
5763, 319, 329, 356, 327,
5765, 320, 330, 356, 327,
5767, 320, 330, 357, 327,
5770, 320, 330, 358, 327,
5772, 320, 332, 358, 327,
5774, 320, 332, 358, 326,
5777, 320, 331, 357, 327,
5779, 321, 331, 357, 327,
5781, 321, 330, 356, 327,
5784, 321, 332, 357, 326,
5786, 321, 331, 356, 326,
5788, 322, 332, 355, 327,
5791, 322, 333, 356, 327,
5793, 322, 333, 355, 328,
5795, 323, 333, 355, 326,
5798, 324, 333, 355, 326,
5800, 324, 333, 354, 327,
5803, 323, 333, 354, 326,
5806, 324, 333, 356, 326,
5808, 324, 334, 354, 326,
5810, 325, 333, 356, 326,
5813, 325, 333, 354, 327,
5815, 325, 333, 352, 327,
5817, 326, 334, 354, 326,
5820, 327, 333, 353, 327,
5822, 327, 333, 352, 326,
5824, 328, 333, 353, 327,
5827, 327, 337, 353, 328,
5829, 328, 334, 353, 327,
5831, 329, 333, 353, 328,
5834, 329, 333, 353, 327,
5836, 329, 333, 353, 327,
5838, 329, 334, 352, 327,
5840, 329, 333, 352, 327,
5843, 332, 333, 351, 328,
5846, 331, 331, 350, 327,
5848, 331, 332, 351, 327,
5851, 330, 333, 350, 327,
5853, 331, 333, 351, 327,
5855, 331, 332, 352, 327,
5858, 331, 333, 352, 327,
5860, 331, 334, 351, 327,
5862, 332, 335, 351, 326,
5865, 331, 334, 350, 328,
5867, 333, 334, 351, 328,
5869, 332, 334, 351, 327,
5872, 333, 334, 350, 328,
5874, 334, 334, 350, 328,
5876, 334, 334, 350, 328,
5879, 334, 334, 350, 328,
5881, 335, 335, 350, 327,
5883, 335, 334, 350, 328,
5886, 335, 335, 350, 329,
5889, 335, 334, 350, 327,
5891, 335, 334, 350, 327,
5894, 336, 335, 350, 327,
5896, 335, 334, 350, 326,
5898, 336, 334, 350, 328,
5901, 337, 335, 349, 327,
5903, 336, 334, 350, 327,
5905, 337, 334, 350, 327,
5908, 337, 335, 349, 328,
5910, 337, 335, 348, 328,
5912, 337, 334, 348, 328,
5915, 337, 332, 349, 327,
5917, 338, 332, 348, 327,
5919, 338, 332, 348, 328,
5922, 338, 332, 348, 327,
5924, 338, 333, 348, 327,
5926, 337, 333, 347, 326,
5928, 338, 334, 348, 327,
5932, 337, 334, 348, 328,
5934, 337, 333, 348, 327,
5936, 337, 334, 348, 327,
5939, 336, 335, 347, 326,
5941, 336, 334, 347, 327,
5943, 336, 334, 348, 327,
5946, 335, 334, 347, 327,
5948, 335, 335, 347, 327,
5950, 335, 334, 347, 328,
5953, 335, 334, 347, 328,
5955, 334, 334, 347, 327,
5957, 332, 335, 347, 328,
5960, 332, 334, 347, 328,
5962, 332, 334, 346, 329,
5964, 331, 333, 347, 328,
5967, 331, 333, 346, 327,
5969, 330, 333, 347, 328,
5971, 330, 333, 346, 326,
5975, 329, 333, 346, 328,
5977, 329, 333, 346, 328,
5979, 329, 333, 346, 327,
5982, 327, 334, 345, 328,
5984, 327, 333, 344, 329,
5986, 327, 333, 346, 328,
5989, 326, 332, 345, 328,
5991, 327, 331, 345, 328,
5993, 325, 333, 345, 328,
5996, 324, 332, 345, 328,
5998, 323, 332, 346, 328,
6000, 323, 332, 347, 328,
6003, 321, 333, 346, 328,
6005, 321, 333, 345, 329,
6007, 321, 333, 344, 328,
6010, 320, 332, 345, 328,
6012, 320, 333, 345, 327,
6014, 320, 333, 344, 328,
6017, 319, 332, 344, 328,
6020, 322, 333, 344, 328,
6022, 318, 333, 344, 328,
6024, 318, 333, 344, 328,
6027, 318, 333, 344, 328,
6029, 317, 332, 343, 328,
6031, 315, 332, 344, 328,
6034, 315, 332, 344, 328,
6036, 315, 332, 343, 328,
6038, 314, 332, 343, 329,
6041, 314, 332, 344, 328,
6043, 313, 332, 344, 328,
6045, 313, 332, 343, 328,
6048, 311, 332, 343, 328,
6050, 311, 332, 343, 329,
6052, 310, 331, 343, 328,
6055, 310, 333, 343, 328,
6057, 310, 334, 342, 327,
6060, 309, 332, 342, 328,
6063, 309, 332, 341, 328,
6065, 309, 332, 340, 328,
6067, 309, 333, 341, 328,
6070, 308, 332, 341, 329,
6072, 308, 332, 341, 331,
6074, 308, 332, 341, 329,
6077, 308, 333, 342, 329,
6079, 308, 332, 342, 328,
6081, 308, 330, 342, 330,
6084, 307, 331, 342, 329,
6086, 307, 329, 342, 328,
6088, 307, 330, 342, 328,
6091, 308, 330, 341, 329,
6093, 308, 331, 340, 329,
6095, 308, 331, 341, 329,
6098, 308, 332, 341, 329,
6100, 307, 333, 341, 328,
6103, 308, 332, 340, 330,
6105, 307, 332, 340, 329,
6108, 308, 332, 340, 329,
6110, 308, 333, 340, 329,
6112, 308, 332, 340, 329,
6115, 308, 332, 340, 330,
6117, 308, 332, 340, 329,
6119, 308, 333, 340, 329,
6122, 308, 332, 340, 329,
6124, 308, 332, 339, 327,
6126, 308, 333, 340, 329,
6129, 308, 332, 339, 329,
6131, 308, 332, 339, 329,
6133, 309, 332, 339, 330,
6136, 309, 331, 339, 329,
6138, 310, 332, 339, 329,
6140, 311, 332, 340, 329,
6144, 310, 331, 340, 329,
6146, 311, 332, 339, 329,
6148, 310, 331, 339, 329,
6151, 310, 331, 339, 329,
6153, 311, 331, 339, 329,
6155, 311, 331, 338, 328,
6158, 311, 331, 338, 329,
6160, 311, 331, 338, 329,
6162, 311, 331, 339, 329,
6165, 311, 331, 339, 329,
6167, 312, 331, 338, 329,
6169, 311, 331, 338, 329,
6172, 311, 331, 338, 329,
6174, 311, 330, 338, 329,
6176, 311, 332, 338, 329,
6179, 312, 331, 338, 329,
6181, 312, 331, 337, 330,
6183, 312, 330, 338, 329,
6187, 312, 331, 338, 329,
6189, 312, 331, 337, 330,
6191, 313, 331, 336, 330,
6193, 312, 330, 337, 329,
6196, 313, 330, 337, 329,
6198, 312, 331, 337, 329,
6200, 313, 331, 336, 330,
6203, 313, 331, 337, 330,
6205, 313, 330, 337, 329,
6207, 314, 330, 336, 330,
6210, 314, 332, 336, 328,
6212, 315, 330, 336, 330,
6214, 315, 330, 336, 330,
6217, 315, 330, 336, 329,
6219, 315, 331, 336, 329,
6221, 316, 331, 336, 330,
6224, 315, 331, 336, 328,
6226, 317, 331, 336, 330,
6228, 317, 331, 336, 330,
6232, 317, 331, 335, 329,
6234, 318, 331, 335, 331,
6236, 318, 330, 335, 329,
6239, 319, 331, 334, 330,
6241, 320, 331, 335, 330,
6243, 320, 331, 335, 329,
6246, 320, 331, 335, 330,
6248, 320, 330, 335, 335,
6250, 320, 330, 335, 330,
6253, 320, 331, 335, 330,
6255, 322, 331, 335, 330,
6257, 321, 331, 335, 330,
6260, 322, 331, 335, 330,
6262, 322, 330, 335, 330,
6264, 322, 331, 336, 330,
6267, 323, 330, 334, 330,
6269, 323, 330, 335, 330,
6272, 323, 330, 335, 330,
6275, 324, 331, 334, 330,
6277, 323, 331, 334, 330,
6279, 325, 330, 335, 330,
6281, 325, 332, 335, 330,
6284, 325, 330, 334, 330,
6286, 326, 329, 335, 330,
6288, 326, 330, 334, 330,
6291, 327, 330, 334, 330,
6293, 327, 330, 333, 331,
6295, 327, 330, 334, 329,
6298, 329, 331, 333, 330,
6300, 328, 330, 334, 330,
6302, 328, 331, 334, 330,
6305, 328, 330, 335, 329,
6307, 328, 330, 333, 330,
6309, 329, 330, 334, 331,
6312, 329, 330, 333, 330,
6315, 329, 330, 333, 330,
6317, 330, 330, 333, 330,
6320, 330, 330, 333, 328,
6322, 331, 329, 332, 331,
6324, 330, 329, 333, 330,
6327, 330, 330, 333, 330,
6329, 330, 331, 333, 330,
6331, 331, 330, 332, 331,
6334, 332, 330, 332, 330,
6336, 331, 330, 333, 330,
6338, 331, 329, 337, 330,
6341, 332, 331, 332, 331,
6343, 332, 331, 333, 331,
6345, 333, 331, 332, 330,
6348, 332, 330, 334, 330,
6350, 332, 331, 332, 329,
6352, 332, 332, 333, 330,
6355, 333, 331, 332, 330,
6358, 333, 331, 332, 330,
6360, 333, 331, 333, 330,
6363, 334, 331, 332, 331,
6365, 334, 331, 331, 331,
6367, 334, 330, 332, 330,
6369, 335, 331, 332, 330,
6372, 335, 331, 332, 330,
6374, 335, 331, 331, 331,
6376, 335, 331, 331, 331,
6379, 335, 330, 332, 331,
6381, 335, 331, 332, 331,
6383, 336, 330, 332, 330,
6386, 335, 331, 332, 332,
6388, 336, 331, 332, 331,
6390, 336, 331, 332, 331,
6393, 336, 331, 332, 330,
6395, 336, 331, 331, 331,
6397, 336, 330, 332, 331,
6401, 335, 331, 332, 331,
6403, 336, 331, 332, 331,
6405, 337, 331, 331, 330,
6408, 337, 330, 331, 331,
6410, 338, 331, 331, 331,
6412, 338, 331, 331, 331,
6415, 337, 329, 332, 331,
6417, 338, 331, 332, 331,
6419, 338, 330, 331, 332,
6422, 338, 330, 331, 331,
6424, 338, 330, 332, 335,
6426, 338, 331, 332, 330,
6429, 338, 331, 331, 332,
6431, 339, 330, 331, 331,
6433, 339, 330, 330, 331,
6436, 339, 331, 332, 331,
6438, 339, 331, 331, 330,
6440, 339, 331, 333, 331,
6444, 339, 330, 332, 331,
6446, 340, 331, 332, 331,
6448, 340, 331, 331, 331,
6450, 340, 330, 332, 332,
6453, 340, 331, 331, 331,
6455, 340, 331, 332, 331,
6457, 339, 333, 332, 330,
6460, 340, 331, 331, 332,
6462, 341, 330, 332, 333,
6464, 340, 330, 332, 332,
6467, 340, 330, 332, 331,
6469, 340, 330, 330, 332,
6471, 341, 331, 331, 330,
6474, 345, 331, 331, 332,
6476, 341, 330, 332, 332,
6478, 341, 330, 331, 331,
6481, 341, 330, 333, 331,
6483, 341, 330, 331, 333,
6486, 341, 329, 331, 332,
6489, 341, 330, 332, 332,
6491, 341, 330, 331, 332,
6493, 342, 330, 331, 333,
6496, 342, 330, 331, 333,
6498, 342, 329, 330, 333,
6500, 341, 330, 332, 332,
6503, 342, 330, 331, 332,
6505, 342, 330, 331, 332,
6507, 341, 330, 332, 333,
6510, 342, 329, 330, 333,
6512, 342, 330, 332, 333,
6514, 342, 331, 332, 334,
6517, 342, 330, 331, 333,
6519, 342, 330, 331, 333,
6521, 342, 329, 332, 333,
6524, 342, 331, 332, 333,
6526, 343, 330, 331, 334,
6529, 343, 330, 331, 333,
6532, 341, 330, 331, 333,
6534, 342, 330, 331, 333,
6536, 342, 330, 331, 334,
6538, 343, 330, 330, 334,
6541, 343, 329, 331, 333,
6543, 343, 330, 332, 333,
6545, 344, 330, 331, 333,
6548, 343, 330, 331, 334,
6550, 344, 329, 332, 333,
6552, 343, 329, 331, 333,
6555, 343, 330, 331, 333,
6557, 343, 330, 331, 333,
6559, 344, 329, 331, 333,
6562, 344, 329, 331, 333,
6564, 344, 330, 331, 333,
6566, 345, 330, 331, 333,
6569, 345, 330, 330, 334,
6572, 345, 329, 330, 333,
6574, 344, 330, 331, 333,
6577, 344, 329, 330, 333,
6579, 344, 329, 330, 332,
6581, 345, 329, 330, 335,
6584, 345, 330, 330, 333,
6586, 345, 330, 329, 333,
6588, 345, 330, 330, 334,
6591, 344, 331, 330, 334,
6593, 345, 331, 330, 334,
6595, 345, 330, 330, 334,
6598, 344, 329, 330, 334,
6600, 344, 331, 331, 334,
6602, 345, 330, 330, 334,
6605, 345, 330, 330, 333,
6607, 345, 330, 330, 334,
6609, 344, 329, 331, 333,
6612, 344, 330, 330, 334,
6615, 345, 330, 330, 334,
6617, 344, 330, 330, 333,
6620, 344, 330, 330, 333,
6622, 345, 330, 329, 333,
6624, 344, 330, 329, 333,
6626, 344, 330, 329, 333,
6629, 345, 330, 329, 333,
6631, 344, 330, 329, 333,
6633, 344, 330, 329, 334,
6636, 344, 330, 328, 334,
6638, 344, 330, 329, 333,
6640, 345, 329, 329, 333,
6643, 344, 329, 329, 333,
6645, 345, 330, 328, 334,
6647, 344, 330, 329, 334,
6650, 346, 330, 329, 333,
6652, 344, 329, 329, 333,
6654, 344, 330, 329, 332,
6658, 343, 330, 329, 335,
6660, 344, 328, 329, 334,
6662, 343, 328, 329, 333,
6665, 343, 330, 329, 333,
6667, 343, 330, 329, 332,
6669, 343, 329, 328, 333,
6672, 343, 329, 328, 333,
6674, 343, 329, 329, 333,
6676, 343, 330, 328, 332,
6679, 343, 330, 329, 333,
6681, 344, 329, 328, 333,
6683, 344, 329, 329, 333,
6686, 343, 328, 329, 332,
6688, 343, 330, 328, 333,
6690, 343, 330, 328, 333,
6693, 343, 329, 327, 333,
6695, 343, 330, 328, 333,
6697, 343, 330, 328, 332,
6701, 343, 330, 328, 333,
6703, 343, 329, 328, 337,
6705, 343, 329, 328, 333,
6708, 344, 330, 328, 333,
6710, 343, 331, 328, 332,
6712, 343, 329, 327, 333,
6714, 343, 329, 328, 332,
6717, 343, 328, 328, 332,
6719, 343, 329, 329, 332,
6721, 343, 329, 327, 333,
6724, 342, 330, 328, 332,
6726, 342, 330, 328, 333,
6728, 342, 329, 328, 332,
6731, 342, 330, 328, 332,
6733, 342, 329, 327, 334,
6735, 342, 326, 328, 333,
6738, 342, 329, 327, 332,
6740, 341, 329, 328, 332,
6743, 342, 330, 327, 330,
6746, 341, 329, 327, 333,
6748, 342, 329, 328, 332,
6750, 341, 329, 328, 332,
6753, 341, 329, 328, 332,
6755, 341, 329, 327, 333,
6757, 341, 329, 327, 332,
6760, 341, 329, 328, 332,
6762, 341, 328, 328, 332,
6764, 341, 329, 327, 332,
6767, 340, 329, 327, 332,
6769, 340, 329, 327, 332,
6771, 340, 329, 328, 331,
6774, 340, 330, 327, 332,
6776, 339, 329, 327, 332,
6778, 340, 329, 326, 332,
6781, 340, 331, 327, 331,
6784, 339, 330, 327, 331,
6786, 339, 330, 327, 330,
6789, 339, 328, 327, 331,
6791, 340, 329, 327, 332,
6793, 339, 328, 327, 331,
6796, 339, 329, 327, 332,
6798, 342, 329, 326, 332,
6800, 340, 329, 326, 331,
6802, 340, 329, 327, 331,
6805, 339, 329, 327, 331,
6807, 339, 329, 326, 331,
6809, 339, 329, 326, 331,
6812, 339, 329, 327, 331,
6814, 339, 329, 327, 331,
6816, 339, 329, 327, 331,
6819, 339, 329, 327, 330,
6821, 340, 328, 326, 331,
6823, 339, 328, 327, 331,
6827, 340, 329, 327, 331,
6829, 339, 329, 326, 331,
6831, 339, 329, 326, 332,
6834, 339, 330, 326, 331,
6836, 339, 329, 326, 331,
6838, 339, 329, 326, 331,
6841, 339, 329, 326, 332,
6843, 339, 329, 326, 331,
6845, 339, 329, 326, 331,
6848, 340, 329, 327, 331,
6850, 339, 329, 326, 331,
6852, 340, 329, 326, 331,
6855, 339, 329, 327, 331,
6857, 339, 329, 326, 331,
6859, 339, 329, 326, 330,
6862, 340, 329, 326, 332,
6864, 340, 329, 326, 332,
6866, 340, 329, 326, 331,
6870, 340, 327, 326, 331,
6872, 340, 328, 326, 330,
6874, 340, 329, 326, 332,
6877, 340, 328, 325, 331,
6879, 340, 328, 326, 334,
6881, 340, 328, 326, 331,
6884, 340, 329, 325, 331,
6886, 340, 329, 325, 332,
6888, 340, 328, 325, 331,
6890, 339, 329, 325, 330,
6893, 339, 329, 325, 331,
6895, 339, 329, 327, 330,
6897, 340, 328, 325, 331,
6900, 340, 329, 325, 331,
6902, 339, 329, 325, 330,
6904, 339, 329, 325, 330,
6907, 339, 328, 324, 332,
6909, 339, 327, 324, 331,
6912, 339, 332, 324, 330,
6915, 339, 327, 325, 330,
6917, 338, 328, 324, 331,
6919, 338, 328, 324, 331,
6922, 338, 328, 324, 330,
6924, 338, 329, 324, 330,
6926, 338, 328, 324, 330,
6929, 341, 329, 325, 329,
6931, 338, 328, 324, 330,
6933, 337, 329, 325, 330,
6936, 338, 329, 325, 330,
6938, 338, 329, 325, 329,
6940, 338, 328, 324, 331,
6943, 338, 328, 324, 329,
6945, 337, 329, 325, 330,
6947, 338, 329, 325, 329,
6950, 338, 328, 324, 330,
6952, 338, 328, 324, 330,
6955, 338, 328, 325, 330,
6958, 338, 328, 324, 328,
6960, 337, 329, 324, 330,
6962, 338, 328, 324, 330,
6965, 337, 327, 324, 330,
6967, 337, 328, 324, 330,
6969, 337, 328, 324, 329,
6972, 338, 327, 324, 330,
6974, 337, 326, 324, 329,
6976, 337, 327, 324, 329,
6978, 337, 328, 324, 330,
6981, 337, 329, 324, 329,
6983, 337, 327, 323, 330,
6985, 337, 328, 324, 329,
6988, 337, 328, 324, 329,
6990, 336, 328, 323, 329,
6992, 337, 328, 324, 329,
6995, 336, 328, 323, 329,
6998, 336, 329, 323, 329,
7000, 336, 329, 324, 328,
7003, 336, 329, 324, 327,
7005, 335, 328, 323, 330,
7007, 336, 328, 323, 329,
7010, 336, 328, 323, 329,
7012, 335, 329, 323, 328,
7014, 336, 329, 323, 328,
7017, 335, 328, 323, 329,
7019, 335, 328, 323, 329,
7021, 335, 328, 324, 328,
7024, 334, 330, 324, 328,
7026, 335, 329, 323, 329,
7028, 335, 328, 323, 329,
7031, 335, 328, 323, 329,
7033, 335, 326, 324, 329,
7035, 335, 329, 323, 329,
7038, 335, 328, 323, 329,
7041, 335, 328, 323, 329,
7043, 335, 328, 323, 329,
7046, 334, 329, 323, 328,
7048, 335, 329, 323, 327,
7050, 335, 329, 323, 329,
7053, 334, 329, 323, 329,
7055, 334, 329, 323, 330,
7057, 335, 329, 323, 328,
7059, 335, 328, 323, 329,
7062, 335, 328, 323, 329,
7064, 334, 329, 323, 329,
7066, 335, 329, 323, 329,
7069, 335, 329, 323, 329,
7071, 335, 328, 324, 330,
7073, 334, 329, 323, 329,
7076, 334, 329, 323, 329,
7078, 334, 328, 323, 328,
7080, 334, 328, 322, 330,
7084, 334, 328, 323, 329,
7086, 334, 328, 323, 329,
7088, 334, 328, 322, 329,
7091, 333, 327, 323, 327,
7093, 334, 327, 323, 329,
7095, 334, 328, 324, 329,
7098, 334, 327, 324, 328,
7100, 334, 328, 322, 328,
7102, 334, 328, 322, 329,
7105, 333, 328, 322, 330,
7107, 333, 328, 323, 328,
7109, 334, 328, 323, 328,
7112, 333, 328, 323, 328,
7114, 334, 328, 322, 330,
7116, 334, 327, 322, 328,
7119, 334, 327, 323, 328,
7121, 334, 328, 322, 328,
7123, 333, 328, 323, 327,
7127, 334, 328, 322, 329,
7129, 333, 328, 323, 329,
7131, 333, 329, 323, 328,
7134, 334, 329, 323, 329,
7136, 334, 329, 322, 329,
7138, 334, 329, 323, 329,
7141, 333, 329, 323, 328,
7143, 333, 328, 323, 329,
7145, 334, 328, 323, 329,
7147, 333, 328, 322, 329,
7150, 334, 329, 322, 329,
7152, 334, 329, 323, 329,
7154, 333, 328, 322, 329,
7157, 334, 329, 322, 330,
7159, 334, 327, 322, 329,
7161, 334, 328, 322, 328,
7164, 334, 328, 322, 329,
7166, 335, 328, 322, 328,
7169, 334, 327, 321, 330,
7172, 334, 328, 322, 329,
7174, 334, 328, 325, 329,
7176, 334, 328, 321, 329,
7179, 334, 328, 321, 330,
7181, 334, 327, 321, 329,
7183, 334, 328, 321, 329,
7186, 334, 326, 322, 329,
7188, 335, 327, 321, 330,
7190, 334, 326, 322, 329,
7193, 334, 327, 322, 329,
7195, 334, 327, 324, 329,
7197, 334, 328, 322, 328,
7200, 334, 328, 322, 329,
7202, 334, 327, 322, 329,
7204, 333, 327, 322, 329,
7207, 333, 328, 322, 329,
7209, 333, 328, 322, 329,
7212, 334, 327, 321, 329,
7215, 334, 327, 320, 329,
7217, 334, 327, 321, 329,
7219, 333, 328, 321, 329,
7222, 334, 328, 322, 330,
7224, 334, 327, 322, 330,
7226, 334, 327, 322, 329,
7229, 333, 328, 322, 329,
7231, 334, 328, 322, 330,
7233, 334, 327, 322, 331,
7235, 334, 327, 322, 330,
7238, 334, 327, 323, 329,
7240, 333, 327, 322, 329,
7242, 334, 327, 322, 330,
7245, 334, 326, 321, 330,
7247, 334, 325, 323, 329,
7249, 335, 325, 322, 329,
7252, 334, 325, 322, 328,
7255, 334, 326, 322, 330,
7257, 333, 326, 322, 329,
7260, 334, 326, 323, 328,
7262, 333, 327, 322, 329,
7264, 334, 326, 322, 330,
7267, 333, 326, 322, 330,
7269, 333, 324, 323, 329,
7271, 333, 326, 323, 329,
7274, 333, 327, 323, 328,
7276, 333, 327, 322, 329,
7278, 333, 326, 323, 329,
7281, 334, 326, 323, 329,
7283, 333, 327, 323, 328,
7285, 334, 327, 322, 328,
7288, 334, 327, 322, 330,
7290, 334, 326, 322, 329,
7292, 333, 324, 322, 330,
7296, 333, 327, 322, 329,
7298, 334, 327, 322, 330,
7300, 334, 326, 322, 329,
7303, 333, 326, 323, 329,
7305, 333, 326, 322, 329,
7307, 334, 327, 321, 329,
7310, 333, 326, 322, 329,
7312, 334, 326, 321, 329,
7314, 334, 325, 321, 329,
7317, 334, 326, 322, 329,
7319, 333, 326, 322, 327,
7321, 334, 326, 322, 330,
7323, 333, 326, 321, 329,
7326, 333, 326, 321, 329,
7328, 333, 324, 321, 328,
7330, 334, 322, 320, 328,
7333, 334, 322, 320, 333,
7335, 334, 324, 321, 328,
7337, 334, 324, 321, 328,
7341, 334, 325, 321, 329,
7343, 334, 325, 320, 329,
7345, 334, 325, 321, 329,
7348, 334, 325, 322, 329,
7350, 332, 325, 324, 329,
7352, 334, 326, 320, 329,
7355, 334, 326, 320, 330,
7357, 334, 325, 321, 329,
7359, 334, 326, 320, 328,
7362, 333, 327, 320, 328,
7364, 334, 326, 320, 329,
7366, 333, 327, 319, 330,
7369, 334, 324, 319, 328,
7371, 333, 326, 319, 328,
7373, 333, 325, 319, 329,
7376, 334, 326, 319, 329,
7378, 333, 326, 320, 329,
7380, 333, 326, 320, 328,
7384, 337, 326, 319, 329,
7386, 333, 326, 319, 330,
7388, 333, 325, 318, 329,
7391, 334, 325, 316, 328,
7393, 333, 325, 317, 328,
7395, 332, 326, 318, 328,
7398, 333, 325, 318, 329,
7400, 333, 326, 319, 329,
7402, 333, 327, 319, 329,
7405, 333, 327, 318, 329,
7407, 334, 327, 317, 329,
7409, 333, 326, 318, 329,
7411, 332, 326, 316, 329,
7414, 333, 325, 316, 329,
7416, 333, 326, 316, 330,
7418, 333, 326, 317, 329,
7421, 333, 327, 317, 329,
7424, 333, 327, 318, 329,
7426, 333, 327, 318, 328,
7429, 333, 327, 317, 330,
7431, 333, 326, 317, 328,
7433, 333, 327, 317, 329,
7436, 333, 328, 317, 328,
7438, 333, 327, 317, 328,
7440, 333, 327, 317, 329,
7443, 333, 327, 317, 328,
7445, 333, 327, 317, 328,
7447, 334, 327, 317, 328,
7450, 334, 327, 317, 329,
7452, 333, 327, 315, 328,
7454, 332, 327, 317, 328,
7457, 333, 327, 316, 328,
7459, 334, 327, 316, 328,
7461, 333, 327, 316, 329,
7464, 333, 327, 316, 328,
7467, 333, 327, 316, 328,
7469, 333, 327, 316, 327,
7472, 332, 326, 315, 328,
7474, 333, 325, 314, 328,
7476, 333, 325, 315, 328,
7479, 333, 326, 315, 327,
7481, 333, 328, 315, 327,
7483, 333, 327, 315, 328,
7486, 333, 328, 316, 327,
7488, 333, 326, 316, 327,
7490, 332, 328, 316, 327,
7493, 333, 327, 315, 328,
7495, 333, 327, 316, 328,
7497, 333, 328, 316, 328,
7499, 332, 328, 316, 327,
7502, 332, 328, 316, 326,
7504, 332, 328, 316, 326,
7506, 332, 326, 316, 327,
7510, 332, 327, 316, 331,
7512, 332, 328, 315, 327,
7514, 333, 328, 315, 326,
7517, 333, 328, 314, 327,
7519, 333, 327, 316, 327,
7521, 332, 328, 316, 326,
7524, 332, 329, 316, 326,
7526, 333, 327, 316, 327,
7528, 332, 327, 314, 327,
7531, 332, 326, 315, 326,
7533, 332, 327, 314, 326,
7535, 332, 327, 314, 326,
7538, 332, 327, 315, 326,
7540, 332, 327, 314, 326,
7542, 331, 329, 315, 325,
7545, 331, 328, 316, 325,
7547, 332, 328, 315, 324,
7549, 332, 328, 315, 326,
7553, 332, 328, 315, 326,
7555, 332, 328, 316, 326,
7557, 332, 329, 316, 325,
7560, 335, 328, 315, 327,
7562, 332, 328, 315, 326,
7564, 332, 327, 315, 326,
7567, 331, 328, 316, 326,
7569, 331, 328, 315, 326,
7571, 332, 328, 315, 326,
7574, 331, 328, 316, 325,
7576, 331, 328, 315, 326,
7578, 331, 328, 315, 325,
7581, 331, 327, 315, 326,
7583, 331, 327, 315, 326,
7585, 331, 327, 315, 325,
7587, 331, 327, 315, 326,
7590, 330, 327, 315, 325,
7592, 330, 326, 315, 326,
7595, 330, 326, 316, 326,
7598, 330, 326, 315, 326,
7600, 330, 327, 316, 325,
7602, 330, 327, 315, 326,
7605, 330, 328, 314, 326,
7607, 329, 328, 315, 326,
7609, 329, 327, 314, 325,
7612, 329, 328, 314, 325,
7614, 329, 327, 314, 326,
7616, 329, 328, 315, 326,
7619, 328, 327, 315, 325,
7621, 328, 327, 314, 325,
7623, 328, 328, 314, 325,
7626, 327, 328, 314, 326,
7628, 327, 328, 314, 325,
7630, 327, 328, 314, 325,
7633, 327, 328, 314, 324,
7635, 326, 328, 314, 326,
7638, 326, 327, 314, 325,
7641, 325, 327, 315, 325,
7643, 325, 328, 315, 325,
7645, 325, 327, 314, 326,
7648, 325, 328, 314, 325,
7650, 324, 328, 315, 325,
7652, 324, 327, 315, 325,
7655, 324, 328, 314, 324,
7657, 323, 328, 313, 325,
7659, 323, 327, 313, 325,
7662, 322, 328, 314, 325,
7664, 322, 328, 314, 325,
7666, 322, 327, 314, 323,
7668, 322, 326, 314, 325,
7671, 322, 327, 315, 325,
7673, 322, 327, 314, 324,
7675, 322, 327, 314, 325,
7678, 321, 327, 314, 325,
7681, 321, 327, 314, 325,
7683, 320, 327, 314, 325,
7686, 321, 325, 315, 325,
7688, 321, 326, 314, 325,
7690, 320, 326, 314, 324,
7693, 320, 325, 314, 324,
7695, 320, 326, 314, 324,
7697, 320, 327, 314, 323,
7700, 319, 327, 315, 324,
7702, 319, 326, 315, 324,
7704, 319, 325, 315, 324,
7707, 319, 326, 314, 324,
7709, 318, 327, 315, 324,
7711, 318, 326, 314, 325,
7714, 318, 327, 315, 323,
7716, 318, 326, 315, 324,
7718, 318, 328, 314, 323,
7721, 318, 327, 314, 325,
7724, 317, 327, 314, 324,
7726, 317, 328, 314, 324,
7729, 317, 327, 314, 324,
7731, 316, 328, 313, 324,
7733, 316, 328, 314, 325,
7736, 320, 327, 314, 325,
7738, 317, 327, 314, 323,
7740, 316, 327, 314, 323,
7743, 316, 328, 314, 324,
7745, 316, 327, 314, 324,
7747, 316, 326, 316, 324,
7750, 316, 328, 313, 323,
7752, 316, 328, 314, 323,
7754, 316, 327, 313, 324,
7756, 315, 327, 313, 323,
7759, 315, 327, 314, 324,
7761, 315, 327, 314, 323,
7763, 315, 325, 313, 324,
7767, 316, 324, 313, 324,
7769, 315, 325, 313, 323,
7771, 315, 326, 314, 323,
7774, 316, 326, 313, 323,
7776, 314, 326, 314, 323,
7778, 314, 326, 314, 323,
7781, 315, 327, 314, 323,
7783, 314, 327, 314, 322,
7785, 314, 327, 314, 322,
7788, 314, 327, 313, 326,
7790, 315, 327, 314, 323,
7792, 314, 327, 314, 323,
7795, 314, 328, 314, 323,
7797, 314, 327, 313, 324,
7799, 314, 327, 313, 323,
7802, 313, 327, 314, 323,
7804, 313, 326, 315, 322,
7806, 313, 327, 313, 323,
7810, 313, 327, 313, 324,
7812, 313, 327, 312, 323,
7814, 313, 327, 311, 323,
7817, 312, 328, 313, 322,
7819, 312, 328, 313, 322,
7821, 313, 330, 313, 322,
7824, 313, 327, 312, 323,
7826, 313, 328, 312, 322,
7828, 312, 328, 312, 322,
7831, 312, 327, 312, 323,
7833, 312, 327, 312, 322,
7835, 312, 327, 313, 322,
7838, 313, 327, 312, 322,
7840, 312, 327, 312, 323,
7842, 311, 326, 311, 323,
7844, 311, 327, 312, 322,
7847, 311, 327, 312, 323,
7849, 310, 327, 311, 323,
7852, 311, 327, 311, 323,
7855, 310, 327, 312, 323,
7857, 311, 327, 311, 323,
7859, 310, 327, 312, 322,
7862, 310, 328, 311, 323,
7864, 310, 326, 310, 323,
7866, 310, 327, 311, 323,
7869, 310, 326, 311, 322,
7871, 309, 327, 311, 322,
7873, 310, 327, 311, 323,
7876, 310, 327, 311, 323,
7878, 310, 328, 311, 322,
7880, 308, 328, 311, 322,
7883, 311, 327, 311, 323,
7885, 309, 327, 311, 324,
7887, 308, 327, 311, 323,
7890, 309, 327, 309, 321,
7892, 308, 327, 310, 322,
7895, 309, 327, 310, 320,
7898, 308, 327, 310, 323,
7900, 308, 327, 310, 322,
7902, 307, 328, 311, 322,
7905, 308, 328, 311, 323,
7907, 307, 327, 309, 322,
7909, 307, 327, 310, 323,
7912, 307, 328, 311, 322,
7914, 306, 325, 311, 322,
7916, 307, 326, 311, 323,
7919, 306, 325, 310, 322,
7921, 306, 325, 311, 322,
7923, 306, 324, 310, 322,
7926, 306, 326, 311, 323,
7928, 306, 326, 311, 323,
7930, 305, 326, 311, 322,
7932, 305, 326, 311, 322,
7936, 304, 327, 311, 322,
7938, 304, 327, 311, 322,
7940, 303, 327, 309, 322,
7943, 305, 326, 311, 322,
7945, 304, 327, 311, 322,
7947, 305, 327, 310, 322,
7950, 304, 327, 310, 323,
7952, 304, 326, 310, 321,
7954, 303, 327, 311, 322,
7957, 303, 327, 311, 322,
7959, 303, 327, 310, 322,
7961, 303, 327, 310, 323,
7964, 303, 327, 310, 325,
7966, 303, 327, 311, 321,
7968, 303, 327, 311, 322,
7971, 302, 328, 311, 320,
7973, 303, 327, 310, 322,
7975, 303, 326, 311, 322,
7979, 302, 327, 311, 321,
7981, 302, 328, 313, 321,
7983, 302, 326, 309, 322,
7986, 303, 326, 309, 322,
7988, 302, 326, 310, 321,
7990, 302, 326, 311, 321,
7993, 303, 327, 310, 322,
7995, 302, 327, 310, 322,
7997, 302, 330, 309, 321,
8000, 302, 327, 311, 321,
8002, 301, 326, 310, 320,
8004, 301, 327, 310, 322,
8007, 301, 325, 309, 321,
8009, 301, 326, 309, 319,
8011, 301, 326, 310, 320,
8014, 305, 326, 309, 320,
8016, 301, 326, 309, 322,
8018, 301, 326, 310, 321,
8020, 300, 327, 310, 321,
8024, 300, 328, 310, 321,
8026, 301, 326, 310, 322,
8028, 300, 326, 309, 321,
8031, 300, 327, 310, 320,
8033, 300, 327, 310, 320,
8035, 299, 326, 309, 321,
8038, 300, 326, 310, 321,
8040, 300, 326, 309, 321,
8042, 300, 326, 309, 321,
8045, 300, 327, 309, 320,
8047, 301, 326, 308, 319,
8049, 300, 326, 309, 321,
8052, 300, 326, 308, 320,
8054, 300, 326, 309, 320,
8056, 300, 326, 308, 320,
8059, 300, 326, 308, 321,
8061, 300, 326, 308, 321,
8064, 300, 326, 308, 321,
8067, 300, 326, 309, 319,
8069, 301, 326, 309, 321,
8071, 300, 326, 309, 321,
8074, 300, 326, 308, 321,
8076, 300, 326, 310, 320,
8078, 299, 327, 308, 320,
8081, 300, 327, 309, 321,
8083, 300, 326, 308, 321,
8085, 300, 326, 307, 320,
8088, 301, 326, 309, 320,
8090, 300, 326, 308, 320,
8092, 300, 325, 308, 321,
8095, 300, 324, 308, 320,
8097, 300, 324, 308, 320,
8099, 300, 326, 308, 321,
8102, 300, 325, 308, 320,
8104, 299, 326, 308, 321,
8107, 300, 326, 308, 320,
8109, 299, 326, 308, 319,
8112, 300, 327, 308, 321,
8114, 300, 326, 308, 322,
8116, 299, 326, 308, 321,
8119, 299, 326, 309, 321,
8121, 299, 327, 308, 320,
8123, 300, 326, 309, 320,
8126, 299, 326, 309, 321,
8128, 299, 325, 309, 321,
8130, 299, 326, 309, 320,
8133, 300, 327, 309, 320,
8135, 300, 326, 307, 322,
8137, 300, 326, 309, 320,
8140, 300, 325, 309, 323,
8142, 300, 326, 309, 321,
8144, 300, 327, 309, 322,
8147, 300, 326, 309, 322,
8150, 299, 326, 308, 321,
8152, 299, 326, 309, 321,
8155, 300, 326, 309, 320,
8157, 300, 326, 311, 320,
8159, 300, 324, 309, 321,
8162, 303, 326, 308, 320,
8164, 300, 326, 309, 321,
8166, 300, 326, 309, 320,
8169, 301, 326, 308, 322,
8171, 301, 325, 309, 321,
8173, 300, 327, 309, 322,
8176, 301, 327, 308, 321,
8178, 301, 325, 307, 322,
8180, 301, 325, 307, 322,
8183, 300, 325, 308, 322,
8185, 301, 324, 306, 325,
8187, 302, 325, 308, 321,
8190, 305, 325, 308, 322,
8193, 301, 325, 309, 322,
8195, 302, 326, 309, 321,
8197, 302, 326, 308, 322,
8200, 302, 326, 308, 321,
8202, 302, 324, 308, 321,
8204, 302, 324, 309, 321,
8207, 302, 324, 308, 320,
8209, 302, 325, 308, 321,
8211, 302, 325, 308, 321,
8214, 302, 325, 309, 321,
8216, 302, 325, 309, 321,
8218, 302, 326, 309, 320,
8221, 303, 326, 308, 322,
8223, 303, 326, 308, 322,
8225, 302, 326, 308, 321,
8228, 303, 325, 308, 321,
8230, 303, 326, 307, 320,
8232, 303, 325, 307, 322,
8236, 303, 325, 308, 321,
8238, 303, 325, 306, 321,
8240, 304, 325, 308, 321,
8243, 303, 325, 307, 319,
8245, 303, 324, 307, 320,
8247, 303, 324, 308, 321,
8250, 303, 325, 309, 320,
8252, 303, 326, 309, 320,
8254, 303, 326, 309, 321,
8257, 304, 326, 309, 320,
8259, 303, 326, 310, 320,
8261, 303, 324, 309, 320,
8264, 303, 327, 309, 321,
8266, 303, 326, 308, 321,
8268, 303, 326, 308, 320,
8271, 303, 327, 308, 320,
8273, 302, 327, 308, 319,
8275, 302, 326, 308, 320,
8278, 302, 326, 309, 320,
8281, 302, 326, 308, 320,
8283, 302, 327, 308, 319,
8285, 302, 326, 308, 320,
8288, 302, 326, 307, 321,
8290, 302, 326, 308, 320,
8292, 300, 326, 308, 320,
8295, 301, 326, 308, 319,
8297, 301, 325, 308, 320,
8299, 301, 325, 308, 320,
8302, 302, 326, 309, 320,
8304, 301, 325, 309, 320,
8306, 301, 326, 308, 320,
8309, 302, 326, 309, 321,
8311, 302, 325, 309, 320,
8313, 301, 326, 309, 319,
8316, 301, 326, 309, 320,
8318, 301, 325, 308, 318,
8321, 301, 326, 308, 320,
8324, 301, 325, 308, 319,
8326, 301, 326, 308, 319,
8328, 302, 325, 307, 319,
8331, 301, 324, 307, 320,
8333, 301, 323, 307, 320,
8335, 301, 323, 306, 319,
8338, 301, 323, 308, 319,
8340, 302, 325, 307, 320,
8342, 301, 325, 307, 320,
8345, 301, 325, 307, 320,
8347, 301, 325, 308, 319,
8349, 301, 326, 307, 320,
8352, 301, 326, 308, 320,
8354, 301, 325, 308, 320,
8356, 301, 325, 307, 319,
8359, 301, 325, 307, 320,
8361, 301, 326, 306, 319,
8364, 301, 324, 306, 320,
8366, 301, 326, 307, 320,
8369, 301, 325, 307, 320,
8371, 300, 326, 307, 319,
8373, 301, 325, 306, 320,
8376, 301, 325, 306, 320,
8378, 301, 325, 306, 320,
8380, 300, 326, 306, 320,
8383, 301, 325, 306, 320,
8385, 301, 325, 306, 321,
8387, 300, 324, 307, 320,
8390, 301, 325, 307, 320,
8392, 301, 325, 307, 320,
8394, 301, 325, 307, 319,
8397, 301, 325, 306, 320,
8399, 301, 324, 306, 320,
8401, 302, 325, 306, 320,
8404, 301, 326, 306, 320,
8407, 302, 325, 306, 320,
8409, 301, 324, 306, 321,
8412, 302, 323, 306, 320,
8414, 301, 323, 306, 320,
8416, 302, 324, 305, 321,
8419, 302, 324, 305, 324,
8421, 302, 324, 306, 321,
8423, 302, 325, 306, 320,
8426, 301, 325, 306, 320,
8428, 302, 325, 305, 322,
8430, 302, 324, 304, 321,
8433, 303, 325, 303, 321,
8435, 302, 324, 306, 322,
8437, 302, 325, 303, 320,
8440, 303, 324, 303, 322,
8442, 303, 323, 303, 321,
8444, 302, 323, 304, 321,
8448, 303, 325, 304, 322,
8450, 303, 325, 304, 322,
8452, 303, 327, 305, 322,
8454, 302, 325, 304, 322,
8457, 303, 324, 304, 322,
8459, 303, 325, 304, 322,
8461, 304, 324, 304, 322,
8464, 304, 324, 304, 322,
8466, 304, 325, 305, 322,
8468, 305, 325, 304, 322,
8471, 303, 325, 304, 321,
8473, 303, 324, 305, 323,
8475, 303, 324, 305, 323,
8478, 303, 325, 305, 323,
8480, 303, 325, 304, 324,
8482, 303, 324, 303, 324,
8485, 304, 324, 304, 323,
8487, 303, 324, 304, 323,
8489, 304, 324, 303, 323,
8493, 304, 325, 304, 324,
8495, 304, 324, 304, 324,
8497, 304, 324, 305, 323,
8500, 304, 324, 306, 323,
8502, 303, 324, 304, 323,
8504, 304, 323, 304, 325,
8507, 304, 323, 304, 324,
8509, 304, 323, 309, 324,
8511, 304, 324, 305, 324,
8514, 303, 324, 305, 325,
8516, 304, 324, 304, 325,
8518, 304, 323, 304, 325,
8521, 304, 323, 305, 324,
8523, 304, 326, 305, 324,
8525, 305, 324, 305, 325,
8528, 304, 324, 305, 326,
8530, 304, 324, 305, 325,
8532, 304, 323, 306, 325,
8536, 305, 324, 305, 326,
8538, 305, 324, 305, 325,
8540, 305, 324, 305, 326,
8542, 305, 325, 306, 326,
8545, 304, 325, 306, 326,
8547, 305, 324, 306, 324,
8549, 305, 324, 306, 326,
8552, 305, 324, 306, 327,
8554, 304, 324, 305, 327,
8556, 305, 324, 306, 326,
8559, 305, 324, 305, 328,
8561, 306, 324, 306, 327,
8563, 305, 325, 306, 327,
8566, 306, 324, 307, 327,
8568, 306, 324, 306, 328,
8570, 305, 324, 307, 328,
8573, 306, 324, 307, 328,
8576, 306, 325, 307, 328,
8578, 306, 324, 307, 327,
8581, 306, 325, 308, 330,
8583, 306, 325, 308, 329,
8585, 306, 324, 308, 329,
8588, 306, 325, 309, 329,
8590, 306, 325, 308, 328,
8592, 306, 324, 308, 330,
8595, 307, 324, 308, 332,
8597, 306, 324, 309, 329,
8599, 306, 325, 309, 328,
8602, 307, 325, 309, 330,
8604, 307, 324, 309, 330,
8606, 307, 324, 310, 330,
8609, 307, 324, 310, 329,
8611, 306, 325, 310, 330,
8613, 307, 325, 309, 331,
8616, 307, 325, 309, 330,
8619, 307, 325, 309, 331,
8621, 306, 325, 309, 330,
8624, 307, 325, 309, 330,
8626, 307, 325, 309, 331,
8628, 307, 326, 310, 331,
8630, 308, 325, 310, 332,
8633, 308, 325, 310, 330,
8635, 308, 324, 309, 332,
8637, 307, 324, 310, 331,
8640, 307, 324, 309, 331,
8642, 307, 325, 311, 331,
8644, 310, 325, 311, 332,
8647, 308, 325, 310, 332,
8649, 307, 326, 310, 332,
8651, 306, 325, 310, 331,
8654, 307, 325, 309, 331,
8656, 307, 324, 309, 332,
8658, 307, 324, 310, 332,
8662, 307, 325, 309, 332,
8664, 308, 325, 311, 332,
8666, 308, 326, 311, 331,
8669, 308, 325, 311, 333,
8671, 308, 325, 312, 333,
8673, 308, 325, 312, 333,
8676, 307, 327, 313, 333,
8678, 308, 325, 312, 334,
8680, 308, 326, 312, 333,
8683, 308, 326, 313, 333,
8685, 308, 325, 312, 335,
8687, 309, 326, 313, 334,
8690, 308, 326, 313, 334,
8692, 308, 326, 312, 334,
8694, 308, 326, 314, 334,
8697, 308, 326, 314, 333,
8699, 308, 326, 314, 334,
8701, 309, 326, 315, 334,
8705, 308, 326, 315, 334,
8707, 308, 326, 315, 334,
8709, 309, 327, 315, 334,
8712, 309, 326, 314, 334,
8714, 309, 326, 315, 334,
8716, 309, 326, 315, 334,
8718, 309, 326, 315, 335,
8721, 309, 326, 315, 335,
8723, 309, 326, 315, 335,
8725, 308, 326, 316, 334,
8728, 309, 325, 316, 334,
8730, 309, 325, 316, 334,
8732, 310, 326, 316, 336,
8735, 310, 326, 317, 335,
8737, 310, 326, 317, 335,
8739, 310, 326, 317, 334,
8742, 310, 326, 318, 335,
8744, 310, 325, 317, 335,
8747, 310, 325, 318, 335,
8750, 310, 326, 319, 335,
8752, 310, 326, 318, 335,
8754, 311, 326, 318, 335,
8757, 311, 326, 318, 335,
8759, 311, 326, 319, 335,
8761, 310, 326, 319, 335,
8764, 311, 326, 319, 336,
8766, 311, 326, 319, 336,
8768, 311, 326, 320, 335,
8771, 311, 326, 321, 335,
8773, 311, 326, 320, 334,
8775, 311, 326, 320, 336,
8778, 312, 326, 319, 335,
8780, 312, 326, 320, 335,
8782, 311, 327, 320, 334,
8785, 312, 325, 320, 335,
8787, 312, 326, 321, 335,
8790, 312, 327, 320, 335,
8793, 312, 327, 321, 334,
8795, 312, 327, 321, 334,
8797, 313, 327, 320, 335,
8800, 313, 326, 320, 333,
8802, 313, 326, 321, 334,
8804, 313, 327, 321, 334,
8806, 313, 326, 321, 335,
8809, 313, 326, 321, 336,
8811, 313, 325, 322, 335,
8813, 313, 326, 322, 334,
8816, 313, 327, 321, 336,
8818, 313, 326, 322, 333,
8820, 315, 326, 322, 335,
8823, 314, 326, 323, 335,
8825, 314, 326, 323, 334,
8827, 314, 327, 323, 334,
8830, 314, 326, 323, 335,
8833, 314, 325, 324, 335,
8835, 314, 326, 323, 335,
8838, 314, 325, 324, 334,
8840, 314, 326, 323, 335,
8842, 315, 327, 323, 335,
8845, 315, 326, 323, 335,
8847, 315, 326, 324, 334,
8849, 316, 326, 324, 335,
8852, 314, 327, 324, 335,
8854, 315, 326, 324, 335,
8856, 315, 326, 325, 334,
8859, 315, 327, 324, 334,
8861, 315, 327, 325, 335,
8863, 316, 327, 325, 335,
8866, 315, 326, 325, 334,
8868, 316, 325, 325, 334,
8870, 316, 327, 325, 334,
8873, 316, 326, 325, 337,
8876, 317, 326, 325, 335,
8878, 316, 327, 326, 334,
8881, 315, 326, 325, 334,
8883, 316, 327, 325, 334,
8885, 316, 326, 325, 335,
8887, 316, 326, 325, 334,
8890, 317, 326, 327, 334,
8892, 316, 327, 326, 334,
8894, 317, 326, 326, 334,
8897, 317, 326, 327, 334,
8899, 317, 326, 327, 334,
8901, 318, 327, 327, 334,
8904, 318, 327, 326, 334,
8906, 317, 330, 327, 334,
8908, 318, 326, 326, 334,
8911, 318, 326, 327, 334,
8913, 318, 326, 327, 333,
8915, 318, 326, 327, 334,
8919, 318, 326, 327, 333,
8921, 318, 326, 328, 334,
8923, 318, 326, 328, 334,
8926, 318, 327, 328, 333,
8928, 319, 325, 328, 335,
8930, 318, 325, 329, 334,
8933, 319, 326, 327, 333,
8935, 318, 326, 329, 334,
8937, 319, 326, 328, 333,
8940, 320, 326, 328, 334,
8942, 319, 326, 328, 333,
8944, 319, 326, 329, 333,
8947, 319, 327, 329, 334,
8949, 320, 326, 329, 334,
8951, 320, 326, 329, 334,
8954, 320, 326, 329, 334,
8956, 319, 325, 329, 333,
8958, 319, 326, 329, 334,
8962, 320, 326, 329, 334,
8964, 320, 325, 329, 334,
8966, 320, 325, 329, 334,
8969, 321, 325, 329, 334,
8971, 320, 326, 329, 332,
8973, 320, 325, 329, 334,
8975, 320, 324, 330, 333,
8978, 320, 326, 330, 333,
8980, 320, 326, 331, 333,
8982, 321, 325, 329, 334,
8985, 321, 325, 330, 334,
8987, 321, 325, 330, 334,
8989, 321, 325, 330, 333,
8992, 322, 325, 329, 333,
8994, 321, 325, 330, 334,
8996, 322, 325, 331, 333,
8999, 322, 325, 331, 333,
9001, 322, 325, 331, 332,
9004, 322, 325, 331, 334,
9007, 322, 325, 330, 333,
9009, 322, 325, 331, 333,
9011, 322, 325, 331, 333,
9014, 322, 325, 331, 332,
9016, 322, 325, 332, 333,
9018, 322, 325, 332, 333,
9021, 322, 324, 332, 333,
9023, 322, 327, 332, 333,
9025, 322, 325, 331, 334,
9028, 323, 326, 332, 333,
9030, 323, 325, 332, 333,
9032, 323, 324, 333, 333,
9035, 322, 327, 332, 334,
9037, 323, 326, 332, 333,
9039, 323, 325, 332, 333,
9042, 323, 326, 332, 332,
9044, 323, 326, 332, 332,
9047, 323, 326, 332, 331,
9050, 324, 326, 332, 337,
9052, 324, 326, 332, 333,
9054, 323, 326, 333, 332,
9057, 324, 326, 332, 333,
9059, 324, 327, 332, 333,
9061, 324, 326, 332, 333,
9063, 325, 326, 332, 332,
9066, 324, 326, 334, 333,
9068, 325, 326, 332, 333,
9070, 325, 326, 332, 332,
9073, 325, 326, 332, 332,
9075, 325, 327, 332, 332,
9077, 325, 327, 332, 331,
9080, 324, 327, 332, 334,
9082, 325, 330, 333, 332,
9084, 325, 326, 332, 332,
9088, 326, 327, 332, 332,
9090, 325, 327, 332, 331,
9092, 325, 326, 333, 333,
9095, 326, 327, 332, 332,
9097, 326, 327, 333, 332,
9099, 329, 327, 333, 332,
9102, 326, 327, 333, 333,
9104, 326, 327, 333, 333,
9106, 326, 327, 333, 332,
9109, 326, 326, 334, 332,
9111, 326, 327, 333, 332,
9113, 327, 327, 332, 332,
9116, 327, 326, 332, 332,
9118, 327, 326, 333, 332,
9120, 327, 327, 332, 331,
9123, 327, 327, 332, 332,
9125, 328, 327, 330, 332,
9127, 328, 327, 331, 332,
9131, 327, 327, 332, 332,
9133, 327, 328, 332, 332,
9135, 328, 327, 332, 333,
9138, 328, 326, 332, 332,
9140, 328, 326, 333, 332,
9142, 328, 326, 333, 332,
9145, 328, 326, 332, 332,
9147, 329, 327, 333, 333,
9149, 329, 327, 333, 333,
9151, 328, 327, 334, 332,
9154, 329, 327, 333, 332,
9156, 329, 327, 333, 334,
9158, 329, 326, 333, 332,
9161, 329, 327, 333, 332,
9163, 329, 327, 333, 332,
9165, 330, 327, 333, 332,
9168, 329, 327, 333, 333,
9170, 330, 326, 333, 333,
9172, 330, 327, 333, 333,
9176, 329, 328, 333, 332,
9178, 330, 326, 332, 333,
9180, 330, 326, 332, 333,
9183, 330, 326, 333, 333,
9185, 330, 327, 333, 333,
9187, 331, 327, 332, 333,
9190, 330, 327, 332, 334,
9192, 331, 327, 332, 333,
9194, 330, 327, 333, 332,
9197, 330, 327, 333, 333,
9199, 330, 327, 333, 332,
9201, 331, 327, 333, 333,
9204, 331, 327, 333, 332,
9206, 331, 327, 334, 332,
9208, 331, 328, 334, 332,
9211, 332, 327, 333, 333,
9213, 332, 327, 334, 332,
9216, 331, 326, 334, 332,
9219, 331, 327, 334, 333,
9221, 332, 327, 333, 333,
9223, 332, 326, 333, 333,
9226, 331, 327, 333, 334,
9228, 332, 327, 333, 333,
9230, 332, 327, 333, 333,
9233, 332, 327, 334, 332,
9235, 332, 326, 333, 333,
9237, 333, 327, 333, 332,
9239, 333, 327, 333, 333,
9242, 332, 327, 334, 333,
9244, 333, 326, 333, 333,
9246, 333, 326, 333, 333,
9249, 333, 327, 333, 333,
9251, 332, 327, 333, 332,
9253, 333, 326, 332, 333,
9256, 333, 326, 332, 333,
9259, 333, 327, 333, 333,
9261, 333, 326, 333, 333,
9264, 333, 327, 333, 332,
9266, 333, 327, 333, 334,
9268, 334, 327, 333, 333,
9271, 334, 326, 334, 333,
9273, 334, 327, 333, 332,
9275, 333, 327, 333, 331,
9278, 334, 326, 332, 333,
9280, 334, 326, 333, 332,
9282, 335, 327, 333, 332,
9285, 334, 328, 333, 332,
9287, 335, 325, 333, 333,
9289, 334, 326, 333, 333,
9292, 334, 327, 334, 332,
9294, 334, 327, 334, 332,
9296, 334, 327, 333, 333,
9299, 335, 327, 333, 332,
9302, 335, 326, 333, 332,
9304, 335, 326, 335, 332,
9307, 334, 327, 334, 332,
9309, 335, 326, 334, 334,
9311, 335, 327, 334, 333,
9314, 335, 327, 334, 332,
9316, 335, 327, 334, 332,
9318, 335, 327, 333, 331,
9321, 335, 327, 333, 332,
9323, 335, 326, 333, 332,
9325, 335, 327, 333, 332,
9327, 335, 327, 333, 331,
9330, 336, 326, 332, 333,
9332, 336, 326, 333, 332,
9334, 336, 327, 334, 332,
9337, 336, 325, 334, 332,
9339, 336, 326, 333, 333,
9341, 336, 326, 333, 333,
9345, 336, 326, 336, 333,
9347, 336, 327, 334, 332,
9349, 336, 326, 334, 332,
9352, 335, 327, 334, 334,
9354, 336, 326, 333, 332,
9356, 336, 326, 334, 332,
9359, 336, 327, 334, 332,
9361, 336, 325, 333, 331,
9363, 336, 326, 333, 332,
9366, 336, 326, 333, 332,
9368, 336, 325, 334, 332,
9370, 336, 326, 334, 331,
9373, 337, 326, 333, 332,
9375, 336, 326, 333, 332,
9377, 335, 326, 333, 331,
9380, 336, 326, 335, 331,
9382, 336, 327, 334, 332,
9384, 337, 326, 334, 333,
9388, 337, 326, 334, 332,
9390, 337, 326, 334, 331,
9392, 337, 327, 334, 332,
9395, 337, 326, 334, 333,
9397, 337, 326, 333, 332,
9399, 337, 326, 334, 332,
9402, 337, 326, 334, 333,
9404, 336, 327, 333, 332,
9406, 337, 326, 334, 333,
9409, 337, 326, 334, 332,
9411, 336, 326, 334, 332,
9413, 337, 326, 334, 332,
9415, 337, 326, 334, 332,
9418, 337, 326, 334, 332,
9420, 337, 327, 334, 332,
9422, 337, 327, 334, 332,
9425, 336, 327, 334, 331,
9427, 336, 326, 334, 333,
9430, 337, 325, 333, 331,
9433, 337, 326, 333, 332,
9435, 337, 327, 333, 332,
9437, 337, 327, 333, 332,
9440, 337, 326, 334, 333,
9442, 337, 326, 334, 333,
9444, 338, 327, 334, 332,
9447, 337, 327, 334, 332,
9449, 338, 326, 334, 333,
9451, 337, 326, 334, 332,
9454, 337, 326, 334, 333,
9456, 337, 326, 334, 333,
9458, 337, 326, 334, 333,
9461, 337, 326, 334, 334,
9463, 337, 325, 335, 333,
9465, 337, 326, 334, 333,
9468, 337, 326, 335, 332,
9470, 337, 326, 335, 331,
9473, 337, 326, 334, 333,
9476, 338, 326, 334, 333,
9478, 337, 327, 335, 332,
9480, 336, 326, 334, 333,
9483, 338, 326, 335, 334,
9485, 338, 326, 334, 333,
9487, 338, 325, 335, 333,
9490, 337, 327, 334, 333,
9492, 338, 327, 334, 333,
9494, 337, 326, 334, 333,
9496, 338, 326, 334, 332,
9499, 338, 326, 334, 333,
9501, 338, 326, 334, 332,
9503, 338, 326, 334, 337,
9506, 338, 326, 334, 333,
9508, 338, 326, 334, 333,
9510, 338, 327, 334, 332,
9513, 338, 327, 334, 332,
9516, 338, 326, 334, 333,
9518, 338, 326, 335, 333,
9521, 338, 326, 339, 333,
9523, 337, 327, 334, 332,
9525, 338, 326, 335, 333,
9528, 338, 326, 334, 333,
9530, 338, 326, 335, 333,
9532, 337, 327, 335, 333,
9535, 337, 327, 334, 333,
9537, 338, 327, 334, 333,
9539, 338, 326, 334, 333,
9542, 338, 327, 334, 333,
9544, 338, 327, 334, 332,
9546, 338, 327, 334, 331,
9549, 338, 326, 334, 332,
9551, 338, 326, 334, 332,
9553, 339, 327, 335, 332,
9556, 337, 327, 335, 332,
9559, 338, 326, 334, 333,
9561, 338, 326, 334, 332,
9564, 337, 326, 335, 332,
9566, 338, 326, 334, 332,
9568, 338, 327, 334, 333,
9571, 337, 326, 334, 332,
9573, 338, 326, 335, 332,
9575, 338, 326, 336, 332,
9578, 338, 326, 334, 332,
9580, 338, 326, 334, 334,
9582, 338, 326, 334, 332,
9584, 337, 326, 334, 332,
9587, 337, 327, 334, 331,
9589, 338, 326, 334, 330,
9591, 338, 326, 334, 331,
9594, 338, 326, 335, 331,
9596, 338, 326, 334, 331,
9598, 338, 327, 334, 331,
9602, 339, 327, 334, 331,
9604, 338, 327, 333, 332,
9606, 338, 327, 334, 331,
9609, 338, 326, 334, 331,
9611, 338, 327, 334, 331,
9613, 339, 326, 333, 332,
9616, 338, 327, 334, 332,
9618, 339, 327, 334, 331,
9620, 339, 327, 334, 332,
9623, 338, 327, 333, 331,
9625, 339, 326, 334, 332,
9627, 339, 327, 334, 331,
9630, 338, 327, 334, 331,
9632, 338, 328, 334, 331,
9634, 339, 326, 333, 332,
9637, 339, 327, 334, 331,
9639, 339, 326, 334, 331,
9641, 339, 327, 335, 331,
9645, 339, 327, 334, 331,
9647, 339, 327, 334, 331,
9649, 339, 327, 334, 331,
9652, 339, 326, 335, 331,
9654, 339, 327, 334, 329,
9656, 337, 327, 334, 331,
9659, 339, 327, 333, 330,
9661, 339, 327, 334, 330,
9663, 338, 327, 334, 330,
9666, 339, 327, 334, 330,
9668, 339, 327, 334, 331,
9670, 339, 326, 334, 330,
9672, 339, 327, 334, 331,
9675, 339, 328, 333, 330,
9677, 339, 326, 333, 331,
9679, 339, 326, 333, 335,
9682, 339, 326, 334, 331,
9684, 339, 327, 334, 330,
9687, 339, 327, 334, 331,
9690, 339, 327, 333, 331,
9692, 339, 327, 333, 331,
9694, 338, 327, 334, 330,
9697, 338, 327, 335, 331,
9699, 338, 327, 333, 330,
9701, 339, 327, 334, 330,
9704, 338, 327, 333, 330,
9706, 339, 327, 334, 329,
9708, 339, 327, 334, 328,
9711, 339, 327, 334, 330,
9713, 338, 329, 334, 329,
9715, 338, 327, 334, 330,
9718, 339, 327, 334, 329,
9720, 339, 327, 334, 330,
9722, 338, 326, 333, 330,
9725, 338, 326, 334, 329,
9728, 338, 326, 335, 328,
9730, 341, 327, 333, 329,
9733, 338, 327, 333, 329,
9735, 338, 327, 333, 329,
9737, 338, 326, 332, 329,
9740, 338, 327, 333, 328,
9742, 337, 326, 333, 330,
9744, 338, 327, 333, 329,
9747, 337, 327, 333, 329,
9749, 338, 326, 333, 329,
9751, 337, 327, 333, 328,
9754, 338, 326, 332, 329,
9756, 338, 326, 332, 329,
9758, 338, 326, 333, 329,
9760, 338, 327, 333, 329,
9763, 337, 327, 333, 331,
9765, 338, 327, 332, 331,
9767, 338, 327, 333, 330,
9771, 337, 327, 333, 330,
9773, 337, 327, 333, 329,
9775, 338, 327, 333, 330,
9778, 338, 327, 333, 330,
9780, 337, 327, 333, 330,
9782, 339, 327, 333, 329,
9785, 338, 328, 333, 329,
9787, 338, 327, 333, 329,
9789, 338, 326, 334, 328,
9792, 338, 327, 334, 327,
9794, 338, 327, 333, 327,
9796, 338, 327, 333, 328,
9799, 339, 327, 333, 327,
9801, 338, 326, 334, 328,
9803, 339, 326, 333, 327,
9806, 339, 327, 333, 327,
9808, 338, 327, 333, 328,
9810, 339, 325, 333, 325,
9814, 339, 326, 332, 324,
9816, 339, 326, 333, 326,
9818, 338, 326, 333, 324,
9821, 339, 326, 332, 326,
9823, 339, 326, 332, 327,
9825, 339, 326, 333, 327,
9828, 339, 327, 333, 327,
9830, 340, 326, 332, 328,
9832, 339, 326, 333, 327,
9835, 339, 326, 333, 327,
9837, 340, 325, 334, 328,
9839, 340, 327, 333, 328,
9842, 340, 326, 333, 328,
9844, 340, 326, 333, 328,
9846, 340, 327, 334, 326,
9848, 340, 326, 334, 326,
9851, 340, 326, 334, 327,
9853, 341, 325, 334, 327,
9856, 341, 325, 334, 327,
9859, 341, 326, 334, 326,
9861, 341, 326, 334, 327,
9863, 341, 325, 333, 327,
9866, 341, 326, 335, 327,
9868, 341, 326, 335, 326,
9870, 342, 326, 335, 325,
9873, 341, 326, 337, 326,
9875, 342, 325, 334, 327,
9877, 342, 326, 334, 327,
9880, 342, 325, 335, 326,
9882, 343, 326, 334, 327,
9884, 343, 326, 334, 327,
9887, 342, 326, 334, 327,
9889, 343, 328, 335, 326,
9891, 343, 327, 334, 326,
9894, 343, 327, 335, 325,
9896, 343, 326, 334, 327,
9899, 342, 326, 335, 327,
9902, 342, 327, 334, 329,
9904, 343, 327, 335, 326,
9906, 346, 327, 335, 325,
9909, 343, 326, 335, 323,
9911, 344, 326, 336, 324,
9913, 343, 325, 337, 325,
9916, 344, 326, 336, 327,
9918, 344, 325, 337, 327,
9920, 344, 326, 336, 327,
9923, 344, 326, 337, 327,
9925, 343, 327, 336, 326,
9927, 344, 326, 336, 327,
9930, 344, 325, 336, 327,
9932, 344, 326, 336, 327,
9934, 344, 326, 336, 327,
9936, 346, 327, 337, 328,
9939, 345, 326, 336, 329,
9942, 346, 326, 336, 329,
9944, 345, 327, 336, 330,
9947, 345, 328, 336, 332,
9949, 346, 326, 336, 332,
9951, 345, 326, 336, 331,
9954, 345, 327, 336, 331,
9956, 345, 327, 337, 332,
9958, 345, 327, 337, 335,
9961, 346, 327, 337, 334,
9963, 346, 327, 337, 333,
9965, 345, 327, 337, 333,
9968, 346, 326, 337, 333,
9970, 345, 326, 337, 332,
9972, 345, 326, 337, 333,
9975, 345, 327, 337, 333,
9977, 345, 327, 337, 333,
9979, 345, 327, 337, 332,
9982, 345, 327, 337, 334,
9985, 346, 326, 338, 334,
9987, 346, 327, 338, 335,
9990, 345, 326, 339, 334,
9992, 346, 329, 338, 334,
9994, 346, 327, 338, 333,
9997, 346, 327, 338, 330,
9999, 346, 326, 339, 331,
10001, 345, 326, 339, 333,
10004, 346, 326, 342, 335,
10006, 346, 326, 339, 335,
10008, 347, 326, 339, 336,
10011, 347, 327, 338, 337,
10013, 347, 327, 338, 337,
10016, 346, 327, 340, 337,
10018, 347, 326, 338, 338,
10020, 347, 327, 338, 338,
10023, 347, 326, 338, 340,
10025, 347, 326, 339, 339,
10029, 347, 328, 339, 340,
10031, 347, 327, 339, 340,
10034, 347, 327, 339, 339,
10036, 347, 327, 339, 340,
10038, 347, 328, 339, 341,
10041, 346, 327, 339, 340,
10043, 347, 326, 339, 340,
10046, 347, 327, 339, 340,
10048, 347, 328, 339, 341,
10050, 347, 327, 339, 341,
10053, 348, 327, 339, 339,
10055, 347, 328, 339, 338,
10058, 347, 326, 340, 337,
10060, 348, 327, 339, 337,
10062, 348, 326, 340, 338,
10065, 348, 325, 340, 338,
10067, 348, 327, 340, 339,
10071, 348, 325, 340, 338,
10073, 348, 326, 340, 340,
10075, 347, 327, 341, 341,
10078, 347, 326, 340, 342,
10080, 347, 327, 341, 342,
10083, 347, 327, 340, 342,
10085, 346, 327, 341, 343,
10087, 347, 327, 340, 343,
10090, 347, 323, 340, 343,
10092, 348, 328, 340, 343,
10095, 348, 328, 340, 343,
10097, 347, 328, 341, 343,
10100, 347, 327, 341, 343,
10102, 347, 328, 340, 343,
10104, 347, 327, 340, 343,
10107, 347, 327, 340, 344,
10109, 347, 327, 340, 343,
10113, 347, 327, 340, 343,
10115, 346, 328, 340, 343,
10117, 346, 326, 340, 342,
10120, 346, 327, 340, 341,
10122, 346, 326, 340, 340,
10125, 345, 327, 340, 340,
10127, 346, 327, 340, 341,
10129, 346, 326, 340, 341,
10132, 347, 327, 340, 341,
10134, 346, 327, 341, 340,
10137, 346, 327, 341, 340,
10139, 345, 328, 341, 340,
10141, 345, 328, 340, 342,
10144, 344, 327, 340, 342,
10146, 345, 327, 340, 341,
10149, 344, 327, 341, 342,
10151, 344, 328, 340, 342,
10153, 344, 328, 340, 343,
10157, 345, 327, 340, 342,
10159, 344, 328, 340, 342,
10162, 344, 327, 341, 342,
10164, 342, 328, 341, 342,
10167, 344, 328, 340, 342,
10169, 344, 327, 340, 342,
10171, 344, 328, 340, 345,
10174, 345, 326, 341, 340,
10176, 345, 327, 340, 341,
10179, 344, 328, 340, 341,
10181, 344, 327, 340, 340,
10183, 344, 327, 341, 339,
10186, 344, 327, 340, 338,
10188, 348, 327, 341, 339,
10191, 344, 327, 340, 340,
10193, 344, 327, 340, 340,
10195, 344, 326, 340, 340,
10199, 344, 327, 340, 341,
10201, 344, 327, 341, 339,
10204, 343, 327, 340, 339,
10206, 344, 327, 340, 339,
10208, 344, 327, 340, 339,
10211, 343, 327, 339, 339,
10213, 343, 328, 339, 339,
10216, 342, 327, 339, 339,
10218, 343, 327, 340, 340,
10220, 343, 327, 340, 338,
10223, 343, 328, 340, 339,
10225, 343, 328, 339, 339,
10228, 343, 327, 340, 338,
10230, 343, 327, 340, 338,
10233, 343, 328, 340, 339,
10235, 342, 328, 338, 338,
10237, 342, 328, 340, 338,
10241, 343, 328, 339, 337,
10243, 343, 327, 339, 337,
10246, 343, 327, 339, 337,
10248, 343, 328, 340, 336,
10250, 343, 326, 340, 336,
10253, 343, 327, 340, 337,
10255, 342, 328, 340, 336,
10258, 343, 327, 341, 335,
10260, 343, 327, 339, 336,
10262, 342, 327, 339, 337,
10265, 344, 327, 340, 336,
10267, 343, 327, 339, 336,
10270, 342, 327, 341, 336,
10272, 343, 327, 340, 336,
10274, 342, 327, 340, 336,
10277, 342, 327, 339, 336,
10279, 343, 327, 339, 336,
10283, 342, 327, 339, 336,
10285, 342, 327, 339, 336,
10287, 340, 327, 339, 336,
10290, 342, 328, 339, 336,
10292, 341, 327, 339, 336,
10295, 342, 328, 339, 335,
10297, 342, 327, 339, 335,
10300, 342, 328, 339, 334,
10302, 342, 327, 339, 335,
10304, 342, 326, 339, 334,
10307, 341, 328, 339, 334,
10309, 342, 328, 339, 334,
10312, 341, 327, 339, 334,
10314, 341, 327, 338, 334,
10316, 341, 328, 339, 334,
10319, 340, 327, 339, 333,
10321, 342, 326, 339, 331,
10324, 341, 327, 339, 331,
10327, 341, 327, 337, 331,
10329, 341, 326, 339, 332,
10332, 342, 325, 339, 332,
10334, 341, 327, 338, 333,
10337, 341, 327, 338, 332,
10339, 340, 327, 338, 333,
10341, 340, 327, 338, 332,
10344, 340, 327, 338, 331,
10346, 341, 327, 338, 332,
10349, 340, 326, 338, 332,
10351, 342, 327, 338, 332,
10353, 340, 327, 338, 332,
10356, 341, 330, 338, 332,
10358, 341, 327, 339, 332,
10361, 341, 326, 338, 332,
10363, 339, 327, 338, 332,
10366, 340, 327, 337, 332,
10369, 341, 328, 337, 333,
10371, 341, 326, 338, 332,
10374, 341, 326, 337, 333,
10376, 341, 327, 337, 332,
10379, 341, 327, 338, 332,
10381, 341, 327, 337, 332,
10383, 341, 327, 337, 332,
10386, 340, 326, 336, 332,
10388, 340, 327, 337, 330,
10391, 340, 327, 338, 331,
10393, 340, 327, 337, 331,
10395, 340, 326, 337, 330,
10398, 339, 326, 337, 330,
10400, 340, 326, 337, 330,
10403, 340, 327, 336, 331,
10405, 341, 328, 336, 329,
10407, 341, 326, 336, 330,
10411, 340, 327, 336, 331,
10413, 340, 326, 336, 331,
10416, 341, 326, 336, 332,
10418, 340, 328, 336, 332,
10420, 341, 328, 336, 332,
10423, 340, 327, 336, 333,
10425, 341, 327, 336, 332,
10428, 341, 327, 336, 332,
10430, 341, 327, 336, 332,
10432, 341, 328, 336, 333,
10435, 342, 327, 336, 332,
10437, 341, 327, 336, 335,
10440, 342, 326, 336, 332,
10442, 341, 326, 335, 333,
10445, 342, 326, 335, 332,
10447, 342, 326, 335, 331,
10449, 342, 326, 336, 332,
10452, 342, 326, 336, 330,
10455, 343, 326, 335, 331,
10458, 343, 326, 335, 332,
10460, 342, 327, 335, 332,
10462, 343, 327, 335, 331,
10465, 344, 326, 335, 330,
10467, 348, 327, 335, 330,
10470, 343, 327, 334, 330,
10472, 343, 327, 335, 330,
10474, 344, 327, 335, 331,
10477, 344, 327, 335, 332,
10479, 344, 326, 334, 331,
10482, 344, 328, 334, 331,
10484, 344, 328, 334, 331,
10486, 344, 327, 335, 331,
10489, 343, 328, 334, 331,
10491, 344, 327, 334, 332,
10494, 343, 328, 334, 331,
10497, 344, 327, 334, 332,
10499, 344, 327, 333, 331,
10502, 344, 328, 334, 332,
10504, 345, 328, 333, 331,
10507, 344, 328, 334, 331,
10509, 343, 328, 334, 332,
10512, 344, 328, 334, 332,
10514, 344, 328, 333, 331,
10516, 344, 328, 334, 331,
10519, 344, 328, 333, 331,
10521, 344, 328, 333, 331,
10524, 344, 327, 336, 330,
10526, 345, 328, 334, 330,
10528, 344, 328, 334, 330,
10531, 344, 327, 334, 330,
10533, 344, 328, 334, 331,
10536, 345, 327, 334, 331,
10539, 344, 328, 333, 331,
10541, 344, 327, 334, 329,
10544, 344, 325, 334, 327,
10546, 344, 327, 334, 326,
10549, 344, 328, 334, 327,
10551, 345, 327, 333, 329,
10553, 344, 327, 333, 331,
10556, 345, 327, 333, 330,
10558, 345, 327, 333, 331,
10561, 344, 328, 333, 332,
10563, 345, 326, 333, 331,
10565, 345, 328, 333, 331,
10568, 345, 328, 333, 331,
10570, 344, 328, 334, 332,
10573, 344, 328, 333, 331,
10575, 345, 328, 333, 331,
10578, 345, 328, 333, 331,
10580, 345, 328, 333, 332,
10583, 345, 327, 333, 331,
10586, 344, 326, 333, 331,
10588, 344, 327, 333, 331,
10591, 345, 328, 333, 331,
10593, 344, 328, 333, 330,
10595, 344, 329, 333, 330,
10598, 344, 327, 333, 330,
10600, 345, 327, 333, 330,
10603, 344, 328, 333, 331,
10605, 344, 328, 333, 331,
10607, 344, 329, 333, 332,
10610, 345, 332, 332, 332,
10612, 344, 328, 333, 332,
10615, 344, 328, 333, 331,
10617, 343, 328, 332, 331,
10619, 344, 329, 332, 331,
10622, 344, 329, 332, 330,
10625, 343, 328, 331, 330,
10628, 344, 328, 332, 330,
10630, 345, 328, 333, 331,
10632, 344, 329, 332, 331,
10635, 344, 329, 333, 331,
10637, 344, 328, 333, 331,
10640, 344, 329, 333, 331,
10642, 342, 329, 332, 331,
10645, 343, 329, 332, 331,
10647, 344, 329, 332, 332,
10649, 343, 328, 333, 330,
10652, 343, 329, 332, 332,
10654, 343, 328, 332, 331,
10657, 344, 329, 332, 332,
10659, 344, 329, 332, 331,
10661, 343, 328, 333, 331,
10664, 343, 328, 332, 332,
10667, 343, 328, 333, 330,
10670, 342, 328, 333, 331,
10672, 343, 328, 333, 331,
10674, 343, 327, 333, 333,
10677, 343, 328, 333, 332,
10679, 343, 328, 333, 330,
10682, 343, 328, 333, 331,
10684, 341, 328, 333, 332,
10686, 342, 328, 333, 332,
10689, 343, 328, 332, 331,
10691, 342, 328, 332, 335,
10694, 343, 328, 333, 330,
10696, 343, 328, 333, 330,
10698, 343, 329, 332, 331,
10701, 343, 328, 333, 331,
10703, 343, 329, 332, 331,
10706, 343, 327, 332, 331,
10708, 346, 328, 331, 331,
10712, 342, 328, 332, 331,
10714, 343, 328, 333, 331,
10716, 342, 328, 332, 331,
10719, 344, 328, 332, 331,
10721, 343, 328, 332, 331,
10724, 343, 328, 332, 332,
10726, 343, 328, 332, 331,
10728, 343, 328, 332, 331,
10731, 343, 328, 332, 330,
10733, 343, 328, 332, 331,
10736, 342, 327, 332, 330,
10738, 343, 328, 332, 331,
10740, 343, 327, 333, 332,
10743, 342, 328, 332, 331,
10745, 343, 328, 332, 331,
10748, 342, 328, 332, 330,
10750, 343, 328, 332, 329,
10753, 342, 328, 332, 330,
10756, 343, 328, 331, 331,
10758, 342, 328, 332, 330,
10761, 342, 328, 332, 331,
10763, 343, 329, 331, 331,
10765, 343, 328, 330, 331,
10768, 342, 329, 331, 331,
10770, 342, 329, 331, 331,
10773, 341, 329, 331, 331,
10775, 342, 328, 331, 331,
10778, 342, 329, 332, 330,
10780, 341, 329, 330, 330,
10782, 342, 329, 331, 331,
10785, 342, 329, 331, 330,
10787, 342, 329, 331, 331,
10790, 342, 330, 332, 330,
10792, 341, 329, 330, 330,
10795, 342, 329, 330, 330,
10798, 341, 329, 329, 330,
10800, 341, 329, 330, 330,
10803, 342, 328, 330, 330,
10805, 342, 329, 330, 330,
10807, 341, 329, 330, 330,
10810, 341, 329, 330, 329,
10812, 340, 330, 329, 330,
10815, 341, 330, 329, 329,
10817, 340, 330, 329, 329,
10819, 341, 330, 327, 329,
10822, 341, 328, 329, 329,
10824, 341, 330, 330, 329,
10827, 340, 329, 330, 330,
10829, 341, 329, 329, 329,
10831, 341, 330, 327, 329,
10834, 341, 329, 329, 329,
10836, 341, 329, 329, 329,
10840, 340, 329, 329, 329,
10842, 341, 329, 329, 328,
10845, 340, 330, 330, 328,
10847, 341, 329, 329, 329,
10849, 341, 330, 329, 328,
10852, 340, 329, 329, 329,
10854, 341, 329, 329, 328,
10857, 340, 330, 329, 328,
10859, 340, 329, 329, 329,
10861, 341, 329, 329, 328,
10864, 341, 329, 328, 328,
10866, 341, 329, 329, 329,
10869, 341, 330, 329, 328,
10871, 340, 330, 329, 327,
10873, 341, 331, 328, 327,
10876, 340, 331, 328, 328,
10878, 340, 329, 328, 328,
10882, 341, 329, 329, 328,
10884, 340, 329, 327, 328,
10886, 340, 330, 328, 327,
10889, 341, 330, 330, 325,
10891, 340, 329, 328, 325,
10894, 340, 329, 328, 327,
10896, 339, 329, 328, 328,
10898, 339, 329, 328, 328,
10901, 339, 330, 329, 327,
10903, 340, 329, 329, 328,
10906, 339, 328, 329, 328,
10908, 340, 329, 329, 328,
10911, 339, 330, 329, 328,
10913, 339, 329, 329, 327,
10915, 339, 329, 329, 327,
10918, 338, 330, 329, 327,
10920, 338, 329, 329, 326,
10924, 339, 330, 329, 327,
10926, 339, 329, 329, 326,
10928, 339, 329, 329, 328,
10931, 338, 330, 328, 329,
10933, 339, 329, 329, 327,
10936, 338, 330, 328, 328,
10938, 338, 329, 329, 329,
10940, 339, 329, 328, 328,
10943, 338, 329, 328, 329,
10945, 339, 329, 329, 328,
10948, 337, 329, 328, 328,
10950, 337, 329, 329, 329,
10952, 338, 327, 329, 328,
10955, 338, 329, 329, 329,
10957, 337, 329, 329, 332,
10960, 338, 329, 328, 328,
10962, 341, 329, 329, 329,
10964, 337, 329, 329, 329,
10968, 336, 329, 329, 328,
10970, 337, 329, 328, 328,
10973, 337, 329, 329, 328,
10975, 339, 329, 328, 328,
