starting
0, 321, 324, 325, 324,
1, 320, 324, 325, 324,
2, 321, 324, 325, 324,
4, 321, 325, 325, 325,
5, 322, 324, 326, 325,
7, 322, 325, 326, 325,
8, 321, 325, 326, 325,
10, 322, 324, 325, 325,
12, 321, 325, 326, 324,
14, 322, 325, 326, 324,
16, 321, 325, 326, 324,
19, 322, 325, 325, 325,
21, 322, 325, 326, 325,
23, 322, 325, 326, 325,
25, 322, 325, 326, 325,
27, 322, 324, 325, 325,
29, 322, 325, 326, 324,
32, 322, 325, 326, 325,
34, 322, 325, 326, 324,
36, 322, 325, 326, 325,
38, 321, 326, 326, 325,
40, 322, 325, 326, 325,
43, 322, 325, 327, 325,
46, 322, 326, 326, 325,
48, 322, 325, 326, 325,
50, 322, 325, 326, 324,
52, 323, 324, 325, 325,
54, 322, 325, 326, 325,
56, 322, 324, 326, 324,
58, 322, 324, 326, 324,
61, 322, 324, 326, 324,
63, 322, 325, 327, 324,
65, 321, 325, 326, 325,
67, 322, 325, 326, 325,
69, 321, 325, 327, 325,
71, 322, 325, 326, 324,
74, 322, 324, 327, 325,
76, 322, 324, 326, 324,
78, 321, 325, 327, 325,
80, 321, 324, 326, 325,
82, 321, 325, 327, 325,
84, 321, 324, 326, 325,
88, 321, 325, 326, 325,
90, 321, 325, 325, 325,
92, 321, 324, 326, 323,
94, 321, 324, 326, 325,
96, 321, 325, 325, 325,
98, 322, 324, 326, 325,
100, 321, 326, 326, 325,
103, 322, 324, 326, 325,
105, 322, 325, 326, 325,
107, 322, 325, 326, 325,
109, 322, 325, 326, 324,
112, 322, 325, 326, 325,
114, 322, 324, 326, 325,
116, 322, 325, 326, 325,
118, 322, 325, 326, 325,
121, 322, 325, 326, 326,
123, 322, 325, 326, 325,
125, 322, 325, 327, 325,
128, 322, 324, 326, 325,
131, 322, 325, 326, 325,
133, 322, 325, 326, 325,
135, 322, 324, 326, 325,
137, 322, 325, 327, 324,
140, 322, 325, 326, 325,
142, 326, 324, 326, 325,
144, 322, 324, 326, 325,
146, 322, 325, 326, 325,
149, 322, 325, 325, 325,
151, 322, 325, 326, 325,
153, 323, 325, 326, 325,
155, 323, 324, 326, 325,
158, 323, 324, 326, 325,
160, 322, 325, 326, 325,
162, 323, 324, 326, 325,
164, 323, 325, 326, 325,
166, 323, 324, 326, 325,
169, 323, 324, 326, 324,
172, 322, 325, 326, 326,
174, 322, 324, 327, 325,
176, 322, 325, 326, 325,
179, 323, 324, 326, 325,
181, 323, 324, 326, 325,
183, 323, 324, 326, 325,
185, 323, 325, 325, 325,
188, 323, 325, 325, 325,
190, 323, 324, 326, 329,
192, 323, 325, 326, 325,
194, 323, 325, 326, 326,
197, 323, 324, 325, 325,
199, 323, 324, 325, 325,
201, 323, 325, 326, 325,
203, 322, 325, 326, 325,
206, 323, 324, 325, 325,
208, 323, 325, 325, 325,
210, 322, 325, 326, 325,
212, 322, 325, 326, 324,
216, 322, 325, 326, 325,
218, 324, 324, 325, 325,
220, 323, 324, 326, 325,
222, 323, 325, 326, 326,
225, 322, 325, 326, 325,
227, 323, 326, 326, 325,
229, 323, 324, 326, 325,
231, 323, 325, 326, 325,
233, 323, 325, 325, 324,
236, 322, 325, 326, 325,
238, 323, 325, 326, 325,
240, 323, 324, 325, 325,
242, 323, 324, 325, 325,
245, 323, 325, 326, 325,
247, 322, 325, 326, 326,
249, 323, 325, 325, 325,
251, 323, 324, 326, 325,
254, 324, 325, 326, 326,
257, 324, 325, 325, 325,
259, 323, 325, 325, 325,
261, 323, 325, 326, 325,
264, 323, 325, 325, 325,
266, 323, 325, 326, 325,
268, 324, 325, 325, 325,
270, 324, 325, 326, 325,
273, 324, 324, 325, 324,
275, 323, 325, 326, 326,
277, 324, 325, 326, 325,
279, 324, 325, 325, 325,
282, 324, 324, 326, 325,
284, 324, 325, 325, 324,
286, 324, 325, 325, 325,
288, 324, 325, 326, 324,
291, 324, 325, 326, 325,
293, 324, 324, 326, 325,
295, 325, 325, 325, 325,
297, 325, 325, 326, 326,
300, 324, 325, 325, 325,
303, 324, 325, 326, 325,
305, 325, 325, 325, 325,
307, 325, 324, 325, 325,
309, 325, 325, 325, 324,
312, 324, 325, 325, 325,
314, 324, 325, 325, 325,
316, 325, 325, 325, 324,
318, 325, 324, 325, 324,
321, 325, 324, 325, 325,
323, 325, 325, 325, 325,
325, 325, 325, 325, 325,
327, 325, 325, 325, 325,
330, 325, 326, 325, 325,
332, 325, 325, 325, 324,
334, 325, 324, 325, 325,
336, 325, 325, 325, 325,
339, 325, 325, 325, 325,
342, 325, 324, 325, 325,
344, 326, 325, 325, 326,
346, 324, 324, 326, 325,
349, 325, 324, 325, 324,
351, 328, 325, 325, 325,
353, 325, 325, 325, 325,
355, 325, 324, 325, 325,
357, 325, 325, 325, 325,
360, 324, 324, 325, 325,
362, 325, 325, 325, 326,
364, 324, 325, 325, 325,
366, 325, 327, 325, 325,
369, 325, 325, 325, 325,
371, 325, 324, 325, 326,
373, 324, 325, 324, 325,
375, 324, 324, 326, 325,
378, 324, 325, 324, 325,
380, 325, 324, 325, 325,
382, 325, 325, 328, 325,
385, 325, 325, 324, 325,
388, 325, 325, 325, 325,
390, 324, 326, 325, 325,
392, 324, 325, 325, 326,
394, 325, 325, 324, 325,
397, 325, 325, 325, 325,
399, 324, 325, 324, 325,
401, 325, 325, 325, 326,
403, 325, 325, 325, 326,
406, 325, 325, 325, 325,
408, 325, 325, 325, 325,
410, 324, 325, 324, 325,
412, 324, 325, 325, 325,
415, 324, 325, 324, 325,
417, 325, 325, 325, 325,
419, 325, 325, 325, 325,
421, 324, 325, 325, 325,
423, 325, 325, 325, 326,
427, 324, 325, 325, 325,
429, 325, 325, 324, 325,
431, 325, 325, 325, 325,
433, 325, 325, 325, 325,
436, 325, 325, 325, 325,
438, 325, 325, 325, 325,
440, 325, 325, 328, 325,
442, 325, 325, 325, 325,
445, 324, 325, 325, 326,
447, 325, 325, 325, 326,
449, 324, 325, 324, 325,
451, 324, 325, 326, 325,
454, 325, 325, 325, 326,
456, 325, 324, 325, 328,
458, 325, 324, 325, 325,
460, 325, 323, 325, 325,
463, 325, 325, 325, 326,
465, 325, 325, 325, 325,
467, 325, 325, 325, 325,
470, 325, 325, 325, 325,
473, 325, 325, 324, 324,
475, 325, 325, 323, 325,
477, 325, 325, 324, 326,
479, 325, 325, 324, 325,
482, 325, 325, 324, 325,
484, 325, 325, 324, 324,
486, 325, 325, 323, 325,
488, 324, 326, 324, 326,
490, 325, 325, 324, 325,
493, 325, 325, 324, 325,
495, 325, 326, 324, 325,
497, 324, 325, 324, 325,
499, 325, 325, 323, 323,
502, 323, 326, 323, 326,
504, 325, 325, 323, 325,
506, 324, 326, 324, 325,
508, 324, 326, 323, 325,
512, 324, 325, 324, 325,
514, 324, 326, 324, 326,
516, 324, 325, 324, 325,
518, 324, 325, 324, 324,
521, 325, 325, 323, 325,
523, 324, 325, 324, 324,
525, 324, 325, 324, 325,
527, 324, 326, 324, 325,
530, 324, 326, 324, 325,
532, 324, 325, 324, 325,
534, 324, 325, 322, 325,
536, 324, 325, 324, 325,
539, 324, 326, 324, 324,
541, 324, 326, 324, 325,
543, 324, 326, 323, 325,
545, 324, 324, 324, 324,
548, 324, 325, 324, 325,
550, 323, 325, 323, 323,
552, 324, 325, 324, 325,
555, 324, 325, 324, 325,
557, 323, 326, 325, 325,
560, 325, 326, 324, 324,
562, 323, 325, 324, 325,
564, 323, 325, 324, 325,
566, 323, 325, 325, 325,
569, 323, 325, 324, 325,
571, 324, 325, 324, 325,
573, 323, 324, 324, 325,
575, 322, 328, 324, 323,
578, 323, 325, 325, 324,
580, 322, 325, 324, 325,
582, 324, 325, 324, 325,
584, 323, 325, 324, 325,
587, 322, 325, 325, 325,
589, 323, 325, 325, 325,
591, 323, 325, 325, 325,
593, 322, 325, 325, 325,
596, 323, 325, 324, 325,
599, 323, 325, 325, 324,
601, 323, 325, 324, 325,
603, 323, 325, 325, 325,
606, 323, 325, 325, 325,
608, 323, 325, 325, 325,
610, 323, 324, 325, 325,
612, 322, 325, 325, 326,
615, 322, 325, 325, 325,
617, 324, 325, 324, 325,
619, 323, 324, 325, 324,
621, 323, 324, 325, 325,
623, 323, 324, 325, 326,
626, 322, 325, 325, 325,
628, 322, 325, 324, 325,
630, 322, 325, 325, 325,
632, 323, 325, 324, 325,
635, 323, 325, 325, 325,
637, 323, 325, 325, 325,
640, 323, 325, 325, 325,
642, 322, 325, 325, 325,
645, 323, 324, 325, 325,
647, 323, 325, 325, 325,
649, 323, 324, 328, 325,
651, 322, 325, 325, 326,
654, 322, 324, 325, 324,
656, 323, 325, 325, 325,
658, 323, 324, 326, 324,
660, 322, 324, 325, 325,
663, 322, 324, 325, 325,
665, 322, 324, 325, 328,
667, 322, 325, 325, 325,
669, 323, 324, 325, 325,
672, 322, 324, 325, 325,
674, 323, 324, 325, 324,
676, 322, 324, 325, 325,
678, 322, 324, 325, 325,
681, 322, 325, 325, 325,
684, 322, 324, 325, 326,
686, 322, 324, 325, 324,
688, 322, 324, 325, 325,
690, 322, 324, 325, 325,
693, 322, 324, 325, 325,
695, 322, 324, 326, 324,
697, 322, 324, 326, 324,
699, 322, 324, 325, 325,
702, 322, 324, 326, 324,
704, 322, 324, 325, 324,
706, 322, 324, 326, 325,
708, 323, 324, 325, 325,
711, 321, 324, 325, 325,
713, 322, 324, 326, 324,
715, 322, 324, 325, 325,
717, 322, 324, 326, 325,
720, 323, 324, 326, 325,
722, 323, 324, 326, 326,
724, 323, 323, 325, 325,
727, 322, 324, 327, 325,
730, 322, 324, 326, 325,
732, 323, 324, 325, 325,
734, 323, 324, 326, 325,
736, 324, 324, 326, 326,
739, 323, 324, 326, 326,
741, 323, 324, 326, 325,
743, 323, 324, 325, 325,
745, 323, 324, 326, 325,
748, 323, 324, 326, 326,
750, 323, 324, 326, 324,
752, 323, 324, 326, 325,
754, 323, 325, 326, 325,
756, 323, 324, 326, 325,
759, 324, 324, 326, 325,
761, 324, 324, 325, 325,
763, 323, 324, 325, 325,
765, 323, 324, 326, 325,
769, 324, 325, 325, 325,
771, 325, 324, 325, 325,
773, 325, 324, 326, 324,
775, 324, 324, 325, 325,
778, 324, 325, 326, 324,
780, 324, 325, 325, 325,
782, 324, 325, 325, 324,
784, 324, 325, 325, 324,
787, 324, 325, 325, 325,
789, 325, 325, 325, 325,
791, 324, 325, 325, 325,
793, 324, 325, 325, 325,
796, 325, 325, 325, 324,
798, 325, 325, 325, 324,
800, 325, 325, 325, 325,
802, 325, 325, 325, 325,
805, 325, 325, 325, 324,
807, 326, 325, 325, 325,
809, 325, 325, 325, 324,
812, 326, 325, 325, 325,
814, 325, 325, 325, 326,
817, 325, 325, 325, 323,
819, 325, 326, 325, 324,
821, 326, 325, 325, 324,
823, 326, 325, 325, 325,
826, 329, 325, 325, 324,
828, 325, 325, 325, 324,
830, 326, 325, 325, 325,
832, 326, 325, 325, 325,
835, 326, 325, 325, 325,
837, 327, 325, 325, 324,
839, 327, 325, 324, 324,
841, 327, 329, 325, 324,
844, 327, 326, 325, 325,
846, 327, 325, 325, 324,
848, 327, 325, 325, 324,
850, 326, 326, 324, 324,
854, 326, 326, 325, 325,
856, 327, 326, 325, 325,
858, 327, 326, 328, 324,
860, 327, 325, 325, 324,
863, 326, 326, 324, 325,
865, 326, 325, 324, 324,
867, 327, 325, 325, 325,
869, 327, 325, 324, 325,
872, 327, 326, 325, 324,
874, 327, 326, 325, 326,
876, 327, 325, 325, 324,
878, 327, 325, 325, 325,
880, 326, 326, 325, 325,
883, 330, 326, 325, 325,
885, 327, 326, 325, 325,
887, 327, 326, 325, 325,
889, 327, 326, 325, 325,
892, 326, 326, 325, 324,
894, 327, 326, 325, 326,
897, 328, 325, 325, 325,
899, 327, 326, 324, 325,
902, 327, 325, 325, 326,
904, 327, 324, 325, 325,
906, 327, 325, 325, 325,
908, 327, 325, 325, 325,
911, 327, 325, 325, 325,
913, 328, 325, 325, 324,
915, 327, 325, 326, 325,
917, 327, 326, 325, 325,
920, 328, 326, 325, 325,
922, 328, 325, 325, 325,
924, 327, 326, 325, 325,
926, 327, 325, 326, 324,
929, 327, 325, 325, 325,
931, 328, 326, 325, 327,
933, 328, 325, 325, 326,
935, 329, 326, 325, 325,
939, 328, 325, 325, 325,
941, 328, 326, 325, 325,
943, 328, 325, 325, 325,
945, 328, 324, 324, 325,
947, 328, 325, 325, 325,
950, 327, 325, 325, 326,
952, 328, 325, 325, 325,
954, 329, 325, 325, 325,
956, 328, 326, 325, 325,
959, 329, 325, 325, 326,
961, 328, 325, 325, 325,
963, 329, 325, 326, 325,
965, 329, 325, 326, 326,
968, 329, 326, 326, 325,
970, 329, 325, 326, 326,
972, 329, 325, 326, 325,
974, 329, 325, 325, 325,
977, 328, 325, 325, 326,
979, 328, 325, 325, 325,
982, 329, 325, 325, 325,
984, 329, 325, 325, 325,
987, 330, 325, 326, 325,
989, 329, 326, 326, 325,
991, 329, 325, 326, 325,
993, 328, 325, 326, 325,
996, 329, 325, 325, 325,
998, 329, 325, 326, 325,
1000, 329, 325, 326, 325,
1002, 329, 325, 326, 325,
1005, 329, 326, 326, 325,
1007, 328, 325, 326, 324,
1009, 329, 324, 326, 325,
1012, 329, 325, 326, 325,
1014, 329, 325, 326, 325,
1016, 329, 325, 326, 325,
1019, 329, 325, 326, 326,
1021, 329, 325, 326, 325,
1024, 328, 325, 326, 326,
1027, 327, 325, 326, 324,
1029, 329, 325, 326, 326,
1031, 328, 325, 326, 327,
1034, 328, 325, 326, 326,
1036, 328, 325, 326, 325,
1038, 328, 326, 326, 325,
1041, 327, 326, 326, 326,
1043, 328, 325, 326, 325,
1045, 328, 325, 326, 325,
1048, 328, 325, 326, 326,
1050, 327, 326, 326, 326,
1052, 328, 324, 324, 326,
1054, 328, 325, 326, 325,
1057, 328, 325, 326, 325,
1059, 328, 325, 326, 325,
1061, 327, 325, 325, 325,
1064, 327, 325, 325, 326,
1067, 327, 326, 326, 325,
1069, 327, 325, 326, 325,
1072, 327, 325, 325, 324,
1074, 327, 325, 325, 326,
1076, 327, 324, 326, 325,
1079, 327, 325, 325, 324,
1081, 326, 325, 325, 324,
1083, 327, 328, 325, 324,
1086, 327, 325, 325, 325,
1088, 326, 325, 325, 325,
1090, 327, 325, 325, 325,
1093, 326, 326, 325, 324,
1095, 327, 325, 324, 325,
1097, 326, 324, 324, 325,
1100, 328, 325, 325, 325,
1102, 326, 324, 326, 325,
1104, 326, 325, 325, 325,
1107, 326, 325, 325, 325,
1110, 326, 325, 324, 325,
1112, 326, 324, 325, 325,
1115, 326, 325, 325, 324,
1117, 325, 324, 326, 325,
1119, 326, 325, 325, 325,
1122, 326, 324, 325, 325,
1124, 325, 326, 325, 325,
1126, 325, 326, 325, 324,
1129, 324, 325, 325, 325,
1131, 325, 325, 325, 326,
1133, 325, 325, 326, 325,
1136, 326, 325, 325, 326,
1138, 325, 325, 325, 326,
1140, 325, 325, 325, 325,
1142, 325, 325, 325, 325,
1145, 325, 325, 325, 325,
1147, 324, 325, 325, 325,
1149, 325, 325, 325, 325,
1153, 325, 324, 325, 328,
1155, 325, 324, 325, 325,
1157, 325, 325, 325, 325,
1160, 324, 326, 325, 325,
1162, 325, 324, 325, 326,
1164, 324, 324, 325, 326,
1167, 324, 324, 325, 325,
1169, 324, 325, 327, 325,
1171, 324, 325, 325, 326,
1174, 325, 325, 325, 326,
1176, 323, 325, 325, 325,
1178, 324, 325, 325, 325,
1181, 324, 325, 325, 326,
1183, 324, 325, 325, 327,
1185, 324, 323, 325, 325,
1188, 324, 324, 325, 325,
1190, 324, 324, 325, 325,
1192, 324, 325, 325, 324,
1196, 324, 325, 325, 326,
1198, 324, 325, 324, 325,
1200, 324, 325, 326, 325,
1203, 323, 325, 325, 326,
1205, 324, 325, 325, 326,
1207, 324, 325, 325, 325,
1210, 324, 324, 326, 325,
1212, 323, 323, 325, 325,
1214, 324, 325, 325, 326,
1217, 323, 324, 324, 325,
1219, 323, 324, 325, 325,
1221, 323, 324, 326, 325,
1224, 324, 324, 325, 325,
1226, 323, 325, 325, 326,
1228, 323, 324, 325, 325,
1230, 323, 324, 326, 325,
1233, 322, 325, 325, 325,
1235, 322, 325, 325, 325,
1238, 323, 324, 325, 325,
1241, 323, 324, 325, 326,
1243, 322, 325, 325, 325,
1245, 323, 325, 325, 325,
1248, 322, 325, 325, 326,
1250, 322, 325, 325, 326,
1252, 322, 325, 325, 325,
1255, 322, 324, 326, 325,
1257, 322, 325, 325, 325,
1259, 322, 325, 325, 325,
1262, 321, 325, 325, 325,
1264, 321, 325, 325, 325,
1266, 321, 325, 325, 325,
1269, 321, 326, 325, 325,
1271, 321, 325, 324, 325,
1273, 321, 325, 325, 325,
1276, 322, 325, 325, 325,
1278, 320, 326, 326, 325,
1281, 321, 325, 325, 326,
1284, 321, 325, 325, 325,
1286, 321, 325, 326, 325,
1288, 321, 323, 325, 325,
1291, 322, 326, 325, 326,
1293, 321, 325, 325, 326,
1295, 321, 325, 325, 325,
1298, 320, 325, 326, 324,
1300, 320, 326, 325, 325,
1302, 320, 325, 325, 325,
1305, 320, 325, 325, 325,
1307, 321, 325, 325, 325,
1309, 321, 325, 325, 324,
1312, 321, 325, 325, 325,
1314, 321, 325, 324, 325,
1316, 321, 325, 326, 326,
1318, 321, 325, 325, 325,
1321, 321, 325, 325, 325,
1324, 322, 325, 325, 325,
1326, 321, 325, 325, 325,
1329, 321, 325, 325, 327,
1331, 321, 325, 326, 325,
1333, 322, 325, 325, 324,
1336, 322, 325, 325, 327,
1338, 322, 324, 326, 325,
1340, 322, 324, 326, 325,
1343, 322, 323, 326, 325,
1345, 322, 324, 328, 325,
1347, 322, 324, 326, 325,
1350, 323, 324, 326, 325,
1352, 322, 325, 326, 325,
1354, 323, 325, 326, 324,
1357, 323, 325, 326, 325,
1359, 323, 325, 326, 325,
1361, 322, 329, 326, 325,
1364, 323, 324, 326, 325,
1367, 322, 325, 325, 326,
1369, 323, 325, 325, 325,
1372, 323, 325, 325, 325,
1374, 323, 325, 326, 324,
1376, 322, 325, 325, 324,
1379, 321, 325, 325, 325,
1381, 323, 325, 325, 325,
1383, 323, 325, 324, 325,
1386, 324, 326, 326, 324,
1388, 323, 326, 325, 325,
1390, 324, 325, 325, 325,
1393, 324, 325, 325, 325,
1395, 324, 325, 326, 325,
1397, 324, 325, 326, 325,
1400, 324, 325, 325, 325,
1402, 324, 325, 325, 325,
1404, 324, 326, 325, 325,
1406, 324, 325, 325, 324,
1410, 324, 326, 325, 324,
1412, 324, 325, 325, 327,
1414, 323, 324, 325, 325,
1417, 324, 325, 325, 325,
1419, 324, 325, 325, 325,
1421, 324, 325, 325, 324,
1424, 324, 326, 325, 325,
1426, 324, 325, 326, 325,
1428, 324, 325, 325, 325,
1431, 323, 326, 326, 325,
1433, 324, 325, 325, 326,
1435, 323, 326, 325, 325,
1438, 324, 325, 326, 325,
1440, 324, 325, 325, 325,
1442, 324, 325, 325, 326,
1445, 324, 325, 325, 326,
1447, 323, 325, 325, 325,
1449, 323, 325, 326, 325,
1453, 323, 325, 325, 325,
1455, 323, 325, 326, 324,
1457, 323, 324, 325, 325,
1460, 323, 324, 325, 325,
1462, 322, 325, 326, 325,
1464, 323, 324, 325, 325,
1467, 323, 325, 325, 326,
1469, 323, 324, 325, 326,
1471, 323, 324, 326, 325,
1474, 323, 324, 326, 325,
1476, 323, 325, 325, 325,
1478, 323, 324, 325, 326,
1481, 322, 325, 326, 325,
1483, 323, 324, 326, 325,
1485, 323, 325, 325, 325,
1488, 323, 324, 326, 325,
1490, 323, 324, 326, 325,
1492, 323, 324, 326, 325,
1495, 324, 324, 326, 325,
1498, 324, 324, 326, 324,
1500, 323, 324, 326, 326,
1502, 324, 324, 326, 326,
1505, 324, 324, 326, 327,
1507, 324, 324, 326, 325,
1509, 324, 324, 326, 326,
1512, 324, 324, 325, 325,
1514, 324, 324, 326, 325,
1516, 323, 324, 326, 325,
1519, 325, 325, 326, 326,
1521, 325, 324, 328, 325,
1523, 325, 324, 326, 325,
1526, 325, 324, 326, 325,
1528, 324, 324, 326, 324,
1530, 324, 324, 326, 324,
1533, 325, 324, 326, 324,
1536, 325, 324, 326, 325,
1538, 325, 328, 326, 325,
1541, 325, 325, 326, 324,
1543, 326, 324, 326, 325,
1545, 325, 324, 326, 325,
1548, 325, 324, 326, 325,
1550, 325, 323, 326, 325,
1552, 326, 324, 326, 326,
1555, 329, 324, 324, 324,
1557, 325, 324, 325, 325,
1559, 326, 324, 327, 324,
1562, 324, 324, 326, 324,
1564, 325, 324, 325, 326,
1566, 325, 322, 326, 324,
1569, 325, 323, 326, 324,
1571, 325, 323, 326, 324,
1573, 325, 324, 326, 324,
1575, 325, 323, 325, 325,
1579, 325, 323, 326, 325,
1581, 324, 324, 326, 325,
1583, 326, 323, 326, 325,
1586, 326, 323, 325, 325,
1588, 325, 323, 325, 324,
1590, 325, 324, 326, 325,
1593, 325, 323, 326, 325,
1595, 325, 323, 326, 325,
1597, 325, 323, 326, 326,
1600, 325, 323, 325, 325,
1602, 325, 323, 326, 325,
1604, 325, 323, 326, 324,
1607, 324, 324, 326, 324,
1609, 324, 323, 326, 325,
1611, 324, 324, 325, 325,
1614, 324, 324, 327, 325,
1616, 323, 323, 326, 324,
1618, 324, 323, 326, 326,
1622, 324, 323, 326, 325,
1624, 324, 323, 326, 325,
1626, 324, 323, 326, 324,
1629, 324, 323, 326, 325,
1631, 323, 324, 326, 324,
1633, 323, 324, 326, 325,
1636, 323, 323, 327, 325,
1638, 323, 324, 326, 325,
1640, 323, 324, 326, 326,
1643, 323, 323, 326, 325,
1645, 323, 323, 326, 325,
1647, 323, 324, 326, 324,
1650, 322, 325, 326, 325,
1652, 323, 323, 326, 325,
1654, 323, 324, 326, 325,
1657, 322, 324, 326, 324,
1659, 323, 324, 326, 325,
1661, 323, 324, 325, 326,
1664, 323, 324, 325, 325,
1667, 323, 324, 326, 325,
1669, 323, 324, 325, 324,
1671, 323, 324, 325, 325,
1674, 323, 324, 325, 326,
1676, 323, 323, 325, 325,
1678, 322, 324, 326, 325,
1681, 322, 324, 326, 326,
1683, 322, 324, 326, 324,
1685, 323, 324, 326, 324,
1688, 323, 324, 326, 325,
1690, 323, 324, 326, 325,
1692, 323, 325, 325, 324,
1695, 322, 325, 325, 325,
1697, 323, 324, 326, 325,
1699, 323, 325, 326, 325,
1702, 323, 325, 325, 324,
1704, 323, 324, 325, 326,
1707, 323, 324, 325, 324,
1710, 323, 325, 325, 323,
1712, 323, 324, 326, 325,
1714, 323, 325, 325, 324,
1717, 322, 325, 325, 325,
1719, 323, 324, 325, 325,
1721, 323, 324, 325, 325,
1724, 323, 325, 326, 324,
1726, 322, 325, 324, 324,
1728, 323, 325, 325, 325,
1731, 327, 325, 324, 324,
1733, 323, 324, 325, 324,
1735, 323, 324, 326, 324,
1738, 323, 325, 325, 325,
1740, 323, 325, 325, 325,
1742, 323, 324, 326, 324,
1745, 322, 325, 325, 324,
1747, 323, 325, 325, 324,
1750, 323, 324, 325, 326,
1752, 323, 324, 325, 324,
1755, 323, 324, 325, 325,
1757, 322, 325, 325, 324,
1759, 322, 325, 325, 325,
1762, 323, 324, 325, 325,
1764, 322, 325, 325, 325,
1766, 323, 325, 325, 324,
1769, 322, 326, 325, 324,
1771, 323, 325, 325, 325,
1773, 322, 324, 325, 325,
1776, 322, 325, 325, 325,
1778, 322, 325, 325, 325,
1780, 322, 325, 325, 326,
1783, 322, 325, 326, 327,
1785, 322, 324, 325, 325,
1787, 321, 324, 325, 327,
1790, 322, 325, 326, 325,
1793, 322, 325, 325, 325,
1795, 322, 324, 325, 325,
1798, 322, 324, 325, 325,
1800, 321, 325, 326, 325,
1802, 322, 325, 325, 324,
1805, 322, 324, 325, 326,
1807, 322, 324, 325, 325,
1809, 322, 324, 325, 325,
1812, 321, 324, 325, 326,
1814, 322, 325, 325, 326,
1816, 322, 324, 326, 324,
1819, 321, 324, 325, 325,
1821, 322, 324, 325, 325,
1823, 321, 324, 325, 325,
1826, 322, 323, 325, 326,
1828, 321, 324, 325, 326,
1830, 322, 324, 324, 326,
1833, 323, 324, 326, 326,
1836, 322, 324, 326, 325,
1838, 322, 324, 326, 326,
1840, 322, 324, 326, 326,
1843, 322, 324, 326, 326,
1845, 322, 325, 326, 325,
1847, 322, 324, 326, 326,
1850, 322, 324, 325, 326,
1852, 322, 325, 326, 326,
1854, 322, 324, 326, 325,
1857, 323, 325, 326, 326,
1859, 322, 324, 326, 327,
1861, 322, 324, 326, 325,
1864, 322, 324, 326, 325,
1866, 323, 324, 325, 325,
1868, 322, 325, 326, 324,
1871, 322, 325, 326, 326,
1873, 322, 324, 326, 326,
1875, 323, 325, 326, 325,
1879, 323, 324, 326, 325,
1881, 323, 324, 326, 326,
1883, 322, 324, 326, 325,
1886, 322, 324, 326, 325,
1888, 322, 324, 326, 325,
1890, 323, 325, 325, 326,
1893, 323, 325, 326, 325,
1895, 323, 325, 326, 326,
1897, 322, 324, 326, 325,
1900, 322, 325, 326, 325,
1902, 323, 325, 326, 325,
1904, 323, 324, 326, 326,
1907, 324, 324, 327, 325,
1909, 323, 325, 326, 325,
1911, 323, 325, 326, 325,
1914, 323, 324, 326, 325,
1916, 323, 324, 326, 326,
1918, 323, 323, 326, 326,
1922, 324, 325, 326, 326,
1924, 324, 325, 326, 326,
1926, 324, 324, 325, 325,
1928, 323, 325, 326, 325,
1931, 324, 324, 326, 326,
1933, 324, 324, 325, 326,
1935, 323, 324, 326, 326,
1938, 324, 324, 326, 326,
1940, 324, 324, 325, 326,
1942, 324, 324, 326, 326,
1945, 323, 325, 326, 325,
1947, 324, 324, 326, 326,
1949, 324, 324, 326, 326,
1952, 324, 324, 326, 326,
1954, 324, 324, 326, 326,
1956, 324, 324, 325, 327,
1959, 324, 324, 326, 331,
1961, 324, 324, 326, 326,
1964, 324, 325, 326, 326,
1967, 324, 325, 326, 327,
1969, 324, 324, 326, 327,
1971, 324, 325, 326, 326,
1974, 324, 323, 327, 326,
1976, 323, 325, 328, 326,
1978, 324, 324, 326, 327,
1981, 324, 324, 326, 327,
1983, 324, 324, 326, 326,
1985, 323, 325, 327, 326,
1988, 324, 325, 326, 327,
1990, 324, 324, 326, 327,
1992, 324, 328, 326, 326,
1995, 323, 323, 327, 326,
1997, 323, 325, 326, 326,
1999, 324, 325, 326, 327,
2002, 323, 324, 326, 326,
2004, 323, 324, 326, 326,
2007, 323, 324, 327, 326,
2010, 327, 324, 326, 326,
2012, 323, 324, 326, 327,
2014, 323, 323, 326, 327,
2016, 323, 325, 326, 326,
2019, 323, 325, 326, 326,
2021, 323, 324, 326, 326,
2023, 323, 324, 327, 326,
2026, 324, 324, 325, 326,
2028, 323, 324, 326, 326,
2030, 323, 324, 326, 326,
2033, 323, 324, 326, 327,
2035, 324, 324, 325, 327,
2037, 323, 324, 326, 326,
2040, 323, 323, 326, 326,
2042, 323, 324, 326, 327,
2044, 323, 324, 325, 327,
2048, 323, 324, 325, 326,
2050, 323, 325, 326, 326,
2052, 324, 324, 325, 326,
2055, 324, 325, 325, 327,
2057, 324, 324, 325, 327,
2059, 323, 324, 325, 326,
2062, 323, 325, 326, 326,
2064, 324, 325, 325, 326,
2066, 324, 325, 325, 326,
2069, 324, 324, 325, 326,
2071, 324, 324, 326, 326,
2073, 324, 325, 325, 326,
2076, 324, 325, 325, 326,
2078, 324, 324, 325, 326,
2080, 324, 324, 326, 326,
2083, 324, 324, 326, 326,
2085, 324, 325, 325, 326,
2087, 324, 325, 325, 327,
2091, 324, 324, 325, 326,
2093, 323, 324, 325, 325,
2095, 324, 325, 325, 326,
2098, 324, 325, 325, 326,
2100, 324, 325, 325, 326,
2102, 324, 324, 325, 326,
2104, 324, 325, 325, 326,
2107, 324, 326, 325, 328,
2109, 324, 324, 325, 326,
2111, 323, 325, 325, 326,
2114, 323, 324, 325, 326,
2116, 324, 325, 325, 325,
2118, 323, 325, 325, 326,
2121, 324, 325, 325, 327,
2123, 323, 325, 325, 326,
2125, 323, 325, 325, 326,
2128, 323, 324, 325, 325,
2130, 322, 324, 325, 326,
2132, 322, 324, 325, 326,
2136, 323, 324, 325, 330,
2138, 322, 324, 326, 326,
2140, 323, 325, 325, 325,
2143, 323, 325, 326, 326,
2145, 323, 324, 326, 325,
2147, 322, 324, 326, 326,
2150, 322, 325, 326, 326,
2152, 322, 325, 328, 326,
2154, 322, 325, 326, 326,
2157, 322, 325, 326, 326,
2159, 322, 325, 325, 326,
2161, 321, 326, 325, 326,
2164, 322, 325, 325, 326,
2166, 321, 325, 325, 326,
2168, 321, 329, 326, 326,
2171, 321, 326, 326, 326,
2173, 321, 325, 325, 326,
2176, 321, 325, 325, 327,
2179, 321, 325, 325, 326,
2181, 320, 325, 324, 326,
2183, 320, 325, 325, 326,
2185, 323, 326, 324, 326,
2188, 321, 325, 324, 327,
2190, 320, 325, 325, 326,
2192, 320, 325, 325, 326,
2195, 321, 325, 325, 326,
2197, 320, 324, 325, 326,
2199, 320, 325, 325, 326,
2202, 320, 325, 325, 326,
2204, 319, 325, 325, 326,
2206, 320, 325, 325, 326,
2209, 320, 325, 325, 326,
2211, 319, 324, 325, 326,
2213, 320, 325, 325, 326,
2216, 319, 326, 325, 326,
2219, 319, 324, 325, 327,
2221, 319, 325, 325, 326,
2224, 319, 325, 326, 326,
2226, 319, 325, 326, 326,
2228, 319, 325, 325, 327,
2231, 319, 325, 325, 326,
2233, 318, 325, 325, 326,
2235, 318, 325, 326, 326,
2238, 318, 325, 326, 325,
2240, 318, 325, 326, 327,
2242, 318, 325, 326, 326,
2245, 318, 325, 325, 325,
2247, 318, 325, 326, 325,
2249, 318, 326, 326, 325,
2252, 318, 325, 326, 326,
2254, 318, 325, 326, 325,
2256, 317, 324, 327, 325,
2259, 318, 325, 325, 326,
2262, 318, 325, 326, 326,
2264, 317, 325, 326, 325,
2267, 316, 325, 326, 325,
2269, 317, 324, 326, 325,
2271, 317, 325, 326, 326,
2273, 317, 325, 326, 325,
2276, 317, 325, 326, 326,
2278, 316, 325, 326, 325,
2280, 317, 325, 326, 325,
2283, 316, 325, 326, 324,
2285, 316, 325, 327, 325,
2287, 315, 325, 327, 325,
2290, 316, 325, 326, 325,
2292, 316, 325, 326, 325,
2294, 316, 324, 326, 325,
2297, 316, 324, 326, 325,
2299, 315, 325, 326, 325,
2301, 316, 325, 326, 325,
2305, 315, 325, 326, 326,
2307, 316, 324, 326, 326,
2309, 315, 325, 326, 325,
2312, 315, 324, 327, 326,
2314, 314, 324, 326, 325,
2316, 315, 324, 326, 326,
2319, 315, 324, 326, 325,
2321, 314, 325, 327, 325,
2323, 315, 324, 326, 324,
2326, 314, 325, 326, 325,
2328, 314, 324, 326, 325,
2330, 314, 324, 326, 325,
2333, 313, 324, 326, 325,
2335, 313, 324, 327, 324,
2337, 313, 324, 326, 325,
2340, 313, 324, 326, 323,
2342, 312, 324, 326, 325,
2344, 312, 324, 326, 325,
2348, 312, 324, 326, 325,
2350, 311, 324, 326, 326,
2352, 311, 324, 326, 325,
2355, 310, 324, 327, 324,
2357, 310, 324, 325, 325,
2359, 309, 324, 326, 324,
2361, 311, 324, 327, 325,
2364, 309, 323, 326, 325,
2366, 308, 323, 326, 325,
2368, 309, 324, 326, 325,
2371, 308, 323, 326, 326,
2373, 308, 322, 326, 324,
2375, 307, 324, 326, 325,
2378, 307, 323, 326, 325,
2380, 307, 323, 326, 326,
2382, 306, 323, 325, 326,
2385, 306, 323, 326, 325,
2387, 306, 324, 326, 325,
2390, 305, 324, 326, 324,
2393, 305, 323, 326, 326,
2395, 305, 323, 326, 325,
2397, 304, 323, 326, 325,
2400, 304, 324, 327, 325,
2402, 304, 324, 326, 325,
2404, 304, 323, 325, 326,
2407, 304, 323, 326, 325,
2409, 304, 323, 327, 325,
2411, 305, 324, 326, 325,
2414, 304, 324, 326, 325,
2416, 304, 324, 326, 325,
2418, 304, 324, 326, 325,
2421, 304, 323, 327, 324,
2423, 304, 324, 326, 325,
2425, 304, 324, 326, 326,
2428, 304, 324, 326, 325,
2430, 304, 324, 326, 325,
2433, 304, 324, 326, 324,
2436, 304, 324, 326, 325,
2438, 304, 324, 326, 325,
2440, 304, 324, 326, 325,
2443, 305, 324, 326, 326,
2445, 304, 325, 326, 324,
2447, 304, 324, 325, 324,
2449, 304, 324, 325, 325,
2452, 305, 324, 326, 325,
2454, 305, 325, 326, 325,
2456, 305, 324, 325, 325,
2459, 305, 325, 326, 325,
2461, 305, 325, 325, 325,
2463, 305, 325, 325, 325,
2466, 304, 325, 326, 325,
2468, 305, 325, 326, 326,
2470, 306, 324, 326, 325,
2473, 306, 325, 325, 325,
2476, 306, 325, 326, 324,
2478, 307, 325, 325, 324,
2481, 306, 325, 326, 325,
2483, 307, 324, 326, 325,
2485, 307, 325, 326, 325,
2488, 307, 326, 326, 325,
2490, 308, 325, 326, 326,
2492, 307, 325, 326, 325,
2495, 308, 325, 325, 325,
2497, 308, 325, 326, 325,
2499, 308, 325, 325, 325,
2502, 308, 325, 326, 326,
2504, 309, 325, 326, 325,
2506, 309, 325, 325, 325,
2509, 309, 325, 326, 325,
2511, 308, 326, 326, 324,
2513, 309, 325, 326, 325,
2516, 310, 325, 326, 325,
2519, 310, 326, 325, 325,
2521, 310, 326, 326, 325,
2524, 311, 325, 325, 325,
2526, 311, 326, 325, 325,
2528, 311, 325, 325, 325,
2531, 310, 326, 326, 324,
2533, 312, 326, 325, 327,
2535, 312, 326, 325, 326,
2537, 312, 325, 325, 325,
2540, 312, 325, 326, 325,
2542, 312, 325, 325, 325,
2544, 312, 326, 325, 325,
2547, 313, 325, 325, 325,
2549, 313, 325, 326, 326,
2551, 313, 325, 325, 325,
2554, 314, 325, 326, 324,
2556, 313, 325, 325, 325,
2558, 314, 326, 326, 325,
2562, 314, 325, 326, 325,
2564, 314, 326, 326, 325,
2566, 313, 325, 325, 326,
2569, 315, 325, 326, 325,
2571, 315, 326, 326, 325,
2573, 315, 326, 326, 325,
2576, 316, 326, 326, 324,
2578, 316, 325, 326, 325,
2580, 316, 325, 325, 325,
2583, 316, 325, 324, 325,
2585, 316, 326, 326, 324,
2587, 318, 325, 326, 324,
2590, 317, 325, 326, 328,
2592, 318, 325, 326, 325,
2594, 318, 325, 326, 325,
2597, 318, 326, 326, 326,
2599, 318, 325, 326, 326,
2601, 319, 325, 326, 325,
2605, 319, 325, 327, 325,
2607, 319, 324, 328, 325,
2609, 320, 326, 326, 326,
2612, 320, 325, 326, 325,
2614, 320, 325, 326, 325,
2616, 320, 325, 326, 325,
2619, 320, 325, 326, 324,
2621, 320, 326, 326, 324,
2623, 321, 329, 326, 325,
2625, 320, 324, 326, 325,
2628, 321, 325, 326, 324,
2630, 321, 325, 326, 324,
2632, 321, 325, 326, 324,
2635, 322, 325, 326, 325,
2637, 322, 325, 326, 324,
2639, 326, 326, 326, 325,
2642, 323, 326, 326, 325,
2644, 323, 325, 326, 326,
2647, 322, 326, 326, 325,
2650, 323, 325, 327, 325,
2652, 323, 325, 326, 324,
2654, 324, 325, 326, 324,
2657, 323, 325, 326, 325,
2659, 324, 325, 326, 325,
2661, 324, 325, 326, 324,
2664, 324, 326, 326, 325,
2666, 324, 325, 326, 325,
2668, 325, 326, 326, 325,
2671, 324, 325, 327, 325,
2673, 324, 326, 326, 325,
2675, 325, 325, 326, 326,
2678, 325, 325, 326, 325,
2680, 325, 325, 326, 325,
2682, 325, 325, 327, 325,
2685, 325, 325, 326, 326,
2688, 326, 325, 326, 326,
2690, 326, 325, 326, 325,
2693, 326, 325, 326, 325,
2695, 326, 326, 326, 325,
2697, 326, 326, 326, 324,
2700, 326, 325, 326, 325,
2702, 327, 325, 326, 325,
2704, 326, 326, 326, 325,
2707, 327, 325, 326, 325,
2709, 327, 325, 325, 325,
2711, 327, 325, 326, 325,
2713, 327, 325, 326, 325,
2716, 327, 324, 326, 325,
2718, 326, 325, 326, 325,
2720, 328, 325, 326, 326,
2723, 328, 325, 326, 325,
2725, 328, 325, 326, 325,
2727, 328, 325, 326, 324,
2731, 328, 326, 326, 326,
2733, 328, 325, 326, 325,
2735, 327, 325, 326, 325,
2738, 328, 326, 327, 326,
2740, 328, 325, 326, 324,
2742, 327, 325, 326, 325,
2745, 329, 325, 326, 325,
2747, 329, 326, 326, 325,
2749, 329, 325, 326, 325,
2752, 329, 325, 326, 326,
2754, 329, 325, 326, 325,
2756, 329, 326, 326, 325,
2759, 329, 325, 327, 325,
2761, 329, 325, 326, 326,
2763, 329, 325, 326, 327,
2766, 329, 325, 326, 328,
2768, 329, 325, 326, 325,
2770, 329, 326, 326, 325,
2774, 329, 326, 326, 325,
2776, 329, 325, 326, 326,
2778, 330, 326, 326, 325,
2781, 329, 326, 326, 325,
2783, 330, 325, 329, 325,
2785, 330, 326, 326, 326,
2788, 330, 325, 326, 325,
2790, 330, 325, 326, 325,
2792, 330, 325, 326, 325,
2794, 330, 326, 326, 325,
2797, 330, 326, 326, 326,
2799, 330, 329, 326, 326,
2801, 330, 326, 326, 325,
2804, 331, 326, 326, 325,
2806, 330, 325, 326, 327,
2808, 330, 325, 326, 326,
2811, 331, 325, 326, 327,
2813, 330, 325, 326, 325,
2816, 334, 326, 326, 325,
2819, 331, 326, 326, 326,
2821, 331, 326, 326, 326,
2823, 331, 325, 327, 326,
2826, 331, 326, 327, 325,
2828, 331, 324, 326, 325,
2830, 331, 325, 326, 327,
2833, 331, 325, 327, 326,
2835, 331, 326, 326, 326,
2837, 331, 326, 326, 326,
2840, 331, 326, 326, 326,
2842, 331, 326, 326, 326,
2844, 330, 325, 325, 327,
2847, 331, 325, 326, 325,
2849, 331, 326, 326, 324,
2851, 331, 325, 326, 325,
2854, 331, 325, 326, 325,
2856, 331, 326, 326, 326,
2859, 331, 326, 326, 325,
2862, 332, 325, 326, 326,
2864, 332, 325, 326, 326,
2866, 331, 325, 326, 325,
2869, 331, 324, 327, 324,
2871, 332, 326, 325, 326,
2873, 332, 326, 326, 326,
2876, 332, 326, 326, 325,
2878, 332, 326, 325, 325,
2880, 331, 325, 326, 325,
2882, 332, 325, 326, 326,
2885, 332, 325, 328, 325,
2887, 332, 325, 326, 325,
2889, 332, 325, 325, 325,
2892, 332, 326, 325, 325,
2894, 332, 325, 325, 326,
2896, 331, 325, 325, 326,
2899, 332, 324, 326, 326,
2902, 332, 325, 325, 325,
2904, 332, 325, 325, 326,
2907, 332, 325, 325, 326,
2909, 332, 326, 325, 326,
2911, 332, 326, 326, 325,
2914, 332, 326, 325, 326,
2916, 332, 325, 325, 327,
2918, 332, 325, 325, 326,
2921, 333, 325, 324, 326,
2923, 333, 326, 325, 326,
2925, 333, 326, 325, 325,
2928, 333, 325, 325, 326,
2930, 333, 325, 325, 325,
2932, 333, 325, 325, 326,
2935, 333, 325, 325, 327,
2937, 333, 325, 325, 327,
2939, 333, 325, 325, 327,
2942, 333, 325, 324, 327,
2945, 333, 324, 325, 326,
2947, 333, 326, 325, 327,
2950, 333, 325, 325, 327,
2952, 333, 325, 325, 326,
2954, 333, 325, 326, 326,
2957, 333, 325, 325, 326,
2959, 333, 325, 325, 326,
2961, 333, 324, 324, 327,
2964, 333, 324, 326, 326,
2966, 333, 325, 325, 326,
2968, 333, 325, 325, 326,
2970, 333, 324, 324, 325,
2973, 333, 324, 325, 327,
2975, 333, 325, 325, 326,
2977, 334, 325, 325, 326,
2980, 333, 325, 324, 326,
2982, 334, 324, 324, 326,
2984, 333, 325, 325, 326,
2988, 334, 324, 324, 327,
2990, 334, 325, 324, 326,
2992, 334, 325, 324, 328,
2995, 334, 325, 325, 326,
2997, 334, 325, 324, 326,
2999, 334, 325, 324, 326,
3002, 334, 325, 324, 326,
3004, 334, 323, 324, 326,
3006, 334, 325, 324, 326,
3009, 334, 325, 324, 325,
3011, 334, 326, 325, 325,
3013, 334, 325, 324, 327,
3016, 335, 325, 324, 326,
3018, 335, 324, 325, 326,
3020, 333, 325, 325, 325,
3023, 335, 325, 324, 326,
3025, 336, 325, 324, 327,
3027, 335, 324, 324, 326,
3031, 335, 324, 325, 325,
3033, 335, 325, 324, 326,
3035, 335, 325, 324, 325,
3038, 336, 324, 324, 326,
3040, 336, 324, 325, 325,
3042, 336, 325, 325, 325,
3045, 336, 325, 324, 329,
3047, 336, 324, 324, 326,
3049, 336, 325, 325, 324,
3052, 336, 325, 325, 325,
3054, 337, 324, 325, 325,
3056, 337, 324, 324, 326,
3058, 337, 324, 324, 325,
3061, 337, 324, 327, 325,
3063, 337, 325, 325, 325,
3065, 337, 324, 324, 326,
3068, 337, 324, 324, 327,
3070, 338, 324, 324, 325,
3073, 337, 324, 325, 325,
3076, 338, 325, 325, 325,
3078, 338, 325, 325, 324,
3080, 338, 324, 325, 325,
3083, 338, 324, 325, 325,
3085, 338, 325, 325, 325,
3087, 339, 325, 325, 325,
3090, 339, 325, 325, 325,
3092, 339, 324, 324, 325,
3094, 337, 324, 325, 325,
3097, 339, 324, 326, 325,
3099, 339, 324, 325, 326,
3101, 339, 324, 325, 326,
3104, 339, 324, 324, 325,
3106, 340, 324, 327, 325,
3108, 340, 324, 325, 325,
3111, 340, 325, 325, 325,
3113, 340, 324, 324, 325,
3116, 340, 324, 325, 324,
3119, 340, 325, 325, 324,
3121, 341, 325, 325, 324,
3123, 341, 324, 325, 325,
3126, 342, 324, 325, 325,
3128, 342, 324, 325, 325,
3130, 342, 324, 325, 324,
3133, 342, 324, 325, 325,
3135, 342, 325, 325, 325,
3137, 343, 324, 324, 325,
3140, 344, 325, 325, 325,
3142, 343, 325, 325, 324,
3144, 344, 324, 325, 326,
3146, 343, 324, 326, 323,
3149, 344, 325, 325, 325,
3151, 344, 325, 324, 326,
3153, 345, 325, 325, 325,
3156, 345, 325, 325, 326,
3159, 346, 324, 325, 325,
3161, 345, 325, 325, 325,
3164, 346, 326, 325, 325,
3166, 347, 325, 325, 325,
3168, 347, 325, 325, 326,
3171, 347, 325, 326, 325,
3173, 348, 325, 326, 325,
3175, 348, 325, 325, 325,
3178, 348, 325, 325, 325,
3180, 348, 324, 325, 324,
3182, 348, 325, 326, 323,
3185, 350, 325, 325, 324,
3187, 349, 325, 326, 324,
3189, 350, 325, 326, 325,
3192, 351, 325, 325, 325,
3194, 350, 326, 326, 325,
3196, 352, 325, 326, 325,
3200, 352, 325, 326, 327,
3202, 352, 325, 326, 326,
3204, 353, 325, 327, 326,
3207, 353, 324, 327, 326,
3209, 354, 326, 326, 326,
3211, 354, 325, 326, 327,
3214, 355, 325, 326, 327,
3216, 355, 325, 326, 326,
3218, 356, 326, 326, 326,
3221, 357, 325, 326, 331,
3223, 358, 325, 327, 327,
3225, 358, 326, 326, 326,
3228, 359, 325, 326, 327,
3230, 360, 325, 327, 327,
3232, 360, 325, 326, 327,
3234, 361, 325, 326, 327,
3237, 361, 325, 329, 327,
3239, 362, 326, 326, 326,
3241, 362, 325, 326, 327,
3245, 362, 326, 326, 327,
3247, 362, 326, 326, 327,
3249, 362, 325, 327, 327,
3252, 364, 326, 326, 327,
3254, 364, 328, 326, 328,
3256, 364, 325, 326, 327,
3259, 364, 326, 326, 327,
3261, 364, 326, 326, 327,
3263, 365, 326, 326, 326,
3266, 365, 326, 326, 328,
3268, 366, 326, 326, 327,
3270, 370, 327, 325, 327,
3273, 366, 327, 326, 327,
3275, 367, 326, 325, 328,
3277, 367, 326, 325, 328,
3280, 367, 326, 326, 327,
3282, 367, 326, 325, 327,
3284, 368, 326, 325, 328,
3288, 368, 327, 325, 328,
3290, 368, 326, 324, 327,
3292, 368, 326, 326, 327,
3295, 368, 327, 326, 328,
3297, 368, 327, 325, 328,
3299, 369, 327, 324, 328,
3302, 369, 326, 324, 328,
3304, 370, 327, 324, 328,
3306, 370, 328, 325, 327,
3309, 370, 326, 324, 328,
3311, 371, 327, 325, 329,
3313, 370, 326, 325, 327,
3316, 371, 326, 325, 327,
3318, 372, 327, 324, 327,
3320, 371, 326, 324, 327,
3322, 371, 327, 324, 327,
3325, 371, 326, 325, 327,
3328, 372, 326, 324, 327,
3330, 372, 327, 324, 330,
3333, 371, 327, 324, 328,
3335, 373, 327, 325, 328,
3337, 373, 327, 324, 328,
3340, 372, 327, 323, 328,
3342, 373, 326, 325, 329,
3344, 373, 326, 324, 329,
3347, 373, 326, 325, 328,
3349, 372, 327, 324, 328,
3351, 373, 326, 324, 329,
3354, 374, 327, 325, 329,
3356, 373, 327, 325, 328,
3358, 374, 326, 325, 328,
3361, 373, 326, 324, 329,
3363, 374, 327, 324, 329,
3365, 373, 327, 325, 328,
3368, 374, 327, 325, 328,
3371, 373, 327, 325, 328,
3373, 373, 327, 324, 328,
3376, 373, 326, 324, 329,
3378, 373, 326, 324, 328,
3380, 373, 327, 325, 328,
3383, 372, 327, 325, 329,
3385, 373, 326, 325, 329,
3387, 373, 326, 325, 329,
3390, 374, 327, 325, 328,
3392, 372, 326, 325, 328,
3394, 372, 327, 325, 329,
3397, 372, 326, 325, 331,
3399, 372, 326, 325, 328,
3401, 372, 326, 325, 328,
3403, 373, 326, 325, 329,
3406, 372, 326, 324, 330,
3408, 373, 325, 325, 329,
3410, 372, 326, 325, 328,
3414, 372, 326, 326, 329,
3416, 372, 326, 325, 328,
3418, 373, 326, 325, 329,
3421, 373, 325, 325, 329,
3423, 373, 326, 325, 329,
3425, 373, 325, 325, 328,
3428, 373, 325, 324, 329,
3430, 373, 326, 325, 329,
3432, 372, 326, 325, 329,
3435, 373, 326, 325, 329,
3437, 374, 325, 324, 330,
3439, 373, 325, 324, 328,
3442, 373, 325, 324, 329,
3444, 373, 325, 324, 328,
3446, 374, 324, 324, 328,
3449, 373, 326, 324, 328,
3451, 373, 325, 324, 329,
3453, 373, 324, 324, 329,
3457, 374, 326, 324, 328,
3459, 374, 326, 324, 327,
3461, 374, 324, 323, 329,
3464, 374, 325, 323, 328,
3466, 374, 324, 324, 328,
3468, 374, 324, 324, 328,
3471, 375, 325, 324, 328,
3473, 376, 325, 323, 329,
3475, 376, 324, 324, 328,
3478, 376, 324, 324, 327,
3480, 376, 325, 323, 327,
3482, 377, 325, 323, 329,
3485, 378, 324, 323, 328,
3487, 379, 324, 323, 330,
3489, 380, 325, 323, 328,
3491, 381, 324, 323, 328,
3494, 382, 324, 322, 329,
3496, 383, 324, 322, 328,
3499, 384, 324, 322, 332,
3502, 385, 325, 322, 327,
3504, 387, 325, 321, 329,
3506, 387, 324, 321, 328,
3509, 388, 324, 321, 328,
3511, 390, 325, 321, 328,
3513, 391, 324, 321, 328,
3516, 392, 325, 319, 328,
3518, 393, 324, 320, 329,
3520, 395, 324, 321, 328,
3523, 395, 325, 321, 328,
3525, 396, 325, 320, 326,
3527, 397, 324, 321, 327,
3530, 398, 324, 320, 327,
3532, 398, 327, 320, 327,
3534, 400, 324, 320, 327,
3537, 400, 324, 320, 329,
3539, 401, 324, 319, 328,
3542, 401, 325, 319, 328,
3545, 401, 324, 320, 328,
3547, 402, 325, 319, 329,
3549, 402, 325, 319, 329,
3552, 402, 324, 318, 328,
3554, 402, 325, 319, 328,
3556, 401, 325, 317, 328,
3559, 402, 325, 317, 328,
3561, 403, 324, 317, 328,
3563, 402, 324, 315, 328,
3566, 403, 325, 316, 328,
3568, 402, 325, 316, 328,
3570, 403, 324, 315, 329,
3573, 402, 324, 315, 329,
3575, 402, 323, 315, 329,
3577, 402, 325, 314, 328,
3579, 401, 324, 313, 329,
3582, 401, 325, 313, 329,
3585, 400, 325, 313, 329,
3587, 399, 324, 313, 328,
3590, 399, 325, 312, 329,
3592, 399, 324, 311, 330,
3594, 397, 324, 311, 329,
3597, 396, 324, 311, 329,
3599, 395, 325, 310, 328,
3601, 394, 324, 309, 326,
3604, 394, 324, 309, 328,
3606, 393, 326, 309, 327,
3608, 392, 324, 308, 327,
3611, 391, 324, 307, 327,
3613, 390, 324, 306, 328,
3615, 389, 324, 306, 328,
3618, 388, 324, 304, 329,
3620, 387, 323, 305, 328,
3622, 387, 324, 303, 329,
3625, 386, 324, 303, 330,
3628, 385, 324, 301, 328,
3630, 384, 324, 301, 328,
3633, 383, 324, 300, 328,
3635, 382, 323, 300, 329,
3637, 382, 324, 297, 329,
3640, 381, 324, 296, 328,
3642, 380, 324, 296, 328,
3644, 380, 325, 295, 328,
3647, 379, 325, 294, 329,
3649, 378, 324, 293, 327,
3651, 376, 324, 291, 326,
3654, 377, 324, 290, 326,
3656, 377, 324, 289, 326,
3658, 375, 324, 288, 327,
3661, 374, 324, 287, 326,
3663, 374, 324, 286, 327,
3665, 373, 324, 284, 327,
3667, 372, 325, 283, 328,
3671, 371, 324, 282, 328,
3673, 371, 324, 281, 328,
3675, 371, 324, 280, 332,
3678, 369, 325, 279, 328,
3680, 368, 325, 278, 329,
3682, 368, 324, 277, 329,
3685, 367, 325, 276, 328,
3687, 366, 324, 275, 328,
3689, 366, 324, 274, 330,
3692, 365, 325, 274, 329,
3694, 364, 325, 273, 329,
3696, 363, 325, 272, 328,
3699, 363, 325, 272, 329,
3701, 361, 325, 272, 328,
3703, 360, 325, 272, 326,
3706, 360, 325, 272, 326,
3708, 358, 326, 271, 326,
3710, 358, 325, 271, 327,
3714, 357, 325, 270, 328,
3716, 356, 325, 270, 328,
3718, 356, 325, 270, 326,
3721, 354, 326, 271, 325,
3723, 354, 325, 270, 325,
3725, 355, 325, 270, 325,
3728, 352, 324, 270, 325,
3730, 351, 326, 270, 326,
3732, 351, 325, 269, 327,
3735, 350, 325, 269, 327,
3737, 349, 325, 269, 329,
3739, 349, 325, 270, 328,
3742, 348, 325, 268, 329,
3744, 347, 325, 268, 330,
3746, 346, 324, 268, 329,
3749, 345, 325, 268, 329,
3751, 345, 325, 267, 328,
3753, 344, 324, 267, 328,
3756, 344, 324, 267, 329,
3759, 344, 323, 267, 329,
3761, 343, 324, 267, 329,
3763, 343, 324, 267, 330,
3766, 342, 324, 267, 330,
3768, 342, 324, 267, 330,
3770, 341, 324, 267, 329,
3773, 341, 324, 267, 329,
3775, 341, 324, 267, 330,
3777, 340, 324, 267, 329,
3780, 339, 324, 267, 329,
3782, 339, 325, 267, 329,
3784, 339, 324, 267, 329,
3787, 338, 325, 267, 328,
3789, 339, 324, 267, 330,
3791, 338, 324, 267, 329,
3794, 338, 325, 265, 330,
3796, 337, 325, 266, 329,
3799, 338, 324, 264, 330,
3802, 338, 324, 265, 329,
3804, 338, 324, 265, 329,
3806, 337, 324, 264, 329,
3809, 338, 325, 263, 330,
3811, 337, 323, 262, 330,
3813, 337, 324, 262, 329,
3816, 337, 324, 260, 329,
3818, 336, 325, 260, 328,
3820, 336, 324, 259, 331,
3823, 337, 324, 258, 329,
3825, 336, 323, 257, 329,
3827, 334, 324, 256, 329,
3830, 336, 324, 255, 329,
3832, 335, 324, 253, 329,
3834, 335, 323, 252, 329,
3837, 335, 324, 251, 329,
3840, 335, 325, 250, 329,
3842, 335, 323, 249, 330,
3844, 334, 324, 247, 329,
3847, 333, 323, 247, 329,
3849, 333, 324, 246, 328,
3851, 333, 323, 244, 329,
3854, 333, 323, 243, 330,
3856, 332, 323, 242, 328,
3858, 331, 323, 241, 329,
3861, 331, 323, 240, 328,
3863, 330, 323, 239, 328,
3865, 330, 323, 238, 329,
3868, 330, 323, 241, 329,
3870, 330, 324, 236, 329,
3872, 330, 324, 236, 328,
3875, 330, 323, 234, 329,
3877, 329, 323, 234, 328,
3879, 328, 323, 233, 328,
3883, 328, 323, 233, 328,
3885, 329, 327, 232, 329,
3887, 328, 323, 232, 329,
3890, 328, 323, 232, 328,
3892, 327, 323, 232, 328,
3894, 327, 323, 232, 327,
3897, 327, 324, 232, 328,
3899, 327, 323, 232, 328,
3901, 329, 323, 233, 328,
3904, 326, 324, 233, 328,
3906, 326, 323, 233, 327,
3908, 325, 323, 233, 329,
3911, 325, 323, 233, 328,
3913, 324, 322, 233, 328,
3915, 324, 324, 234, 327,
3918, 325, 323, 234, 328,
3920, 324, 323, 234, 328,
3922, 323, 323, 236, 328,
3926, 322, 324, 236, 328,
3928, 323, 324, 236, 327,
3930, 322, 323, 236, 329,
3932, 322, 322, 237, 327,
3935, 321, 323, 239, 327,
3937, 321, 323, 239, 327,
3939, 321, 323, 240, 326,
3942, 321, 323, 241, 327,
3944, 320, 322, 241, 327,
3946, 320, 323, 242, 327,
3949, 319, 324, 243, 326,
3951, 319, 322, 244, 328,
3953, 318, 322, 244, 327,
3956, 318, 323, 246, 327,
3958, 318, 323, 246, 328,
3960, 317, 323, 248, 327,
3963, 317, 323, 249, 327,
3965, 317, 323, 251, 327,
3968, 316, 323, 252, 326,
3971, 316, 323, 253, 326,
3973, 316, 323, 255, 327,
3975, 316, 322, 256, 327,
3978, 315, 322, 256, 326,
3980, 314, 323, 259, 326,
3982, 315, 323, 260, 325,
3985, 314, 323, 261, 326,
3987, 314, 322, 263, 325,
3989, 313, 321, 265, 325,
3992, 313, 323, 267, 326,
3994, 313, 323, 268, 326,
3996, 313, 323, 269, 325,
3999, 312, 322, 272, 325,
4001, 312, 322, 273, 325,
4003, 311, 322, 275, 326,
4006, 312, 322, 276, 325,
4008, 312, 322, 278, 325,
4011, 312, 323, 279, 325,
4013, 311, 322, 281, 325,
4016, 310, 323, 282, 324,
4018, 311, 322, 284, 325,
4020, 311, 322, 285, 325,
4023, 310, 322, 287, 325,
4025, 310, 322, 288, 325,
4027, 310, 322, 289, 325,
4030, 310, 322, 290, 326,
4032, 309, 323, 292, 325,
4034, 310, 323, 293, 325,
4037, 309, 323, 294, 325,
4039, 309, 322, 295, 326,
4041, 309, 323, 297, 324,
4044, 309, 322, 302, 325,
4046, 308, 323, 299, 324,
4048, 308, 322, 300, 325,
4051, 309, 323, 300, 325,
4054, 309, 322, 302, 324,
4056, 309, 323, 303, 322,
4059, 308, 324, 304, 324,
4061, 308, 326, 305, 324,
4063, 308, 323, 306, 324,
4066, 307, 323, 307, 324,
4068, 308, 324, 307, 323,
4070, 307, 323, 308, 324,
4073, 308, 324, 307, 324,
4075, 307, 323, 310, 324,
4077, 309, 324, 309, 324,
4080, 307, 324, 309, 324,
4082, 307, 324, 310, 325,
4084, 307, 324, 310, 324,
4087, 307, 324, 309, 324,
4089, 306, 324, 310, 323,
4091, 306, 325, 310, 323,
4094, 306, 324, 310, 324,
4097, 307, 324, 311, 324,
4099, 307, 324, 311, 324,
4101, 307, 324, 311, 324,
4104, 307, 324, 312, 324,
4106, 306, 324, 312, 324,
4108, 307, 325, 314, 323,
4111, 307, 324, 315, 324,
4113, 307, 324, 316, 325,
4115, 306, 324, 317, 325,
4118, 307, 324, 319, 323,
4120, 307, 325, 320, 324,
4122, 306, 325, 321, 324,
4125, 306, 324, 322, 324,
4127, 306, 324, 324, 325,
4129, 306, 324, 325, 328,
4132, 306, 325, 327, 324,
4134, 306, 325, 328, 323,
4136, 306, 325, 328, 325,
4140, 306, 325, 330, 324,
4142, 306, 325, 332, 324,
4144, 307, 325, 333, 324,
4147, 306, 325, 333, 324,
4149, 306, 325, 335, 325,
4151, 306, 325, 336, 324,
4154, 306, 325, 338, 324,
4156, 306, 326, 337, 324,
4158, 306, 326, 339, 324,
4161, 306, 325, 339, 324,
4163, 306, 325, 340, 325,
4165, 306, 326, 341, 324,
4168, 306, 325, 342, 325,
4170, 306, 325, 342, 325,
4172, 306, 325, 343, 324,
4175, 306, 325, 344, 324,
4177, 306, 326, 344, 323,
4179, 307, 326, 344, 325,
4183, 306, 325, 345, 324,
4185, 306, 325, 346, 324,
4187, 306, 325, 346, 323,
4189, 306, 325, 346, 324,
4192, 306, 325, 347, 322,
4194, 306, 325, 347, 324,
4196, 306, 325, 348, 323,
4199, 305, 326, 347, 323,
4201, 306, 325, 348, 323,
4203, 306, 326, 348, 324,
4206, 306, 325, 349, 323,
4208, 306, 325, 348, 323,
4210, 306, 326, 349, 323,
4213, 306, 326, 348, 324,
4215, 306, 326, 349, 323,
4217, 306, 326, 349, 323,
4220, 306, 326, 349, 323,
4222, 306, 326, 349, 324,
4225, 306, 326, 349, 324,
4228, 306, 326, 349, 323,
4230, 306, 326, 349, 323,
4232, 306, 326, 348, 322,
4235, 306, 326, 349, 325,
4237, 306, 326, 348, 323,
4239, 306, 326, 348, 323,
4242, 306, 326, 348, 323,
4244, 306, 326, 348, 322,
4246, 306, 326, 347, 324,
4249, 306, 326, 346, 323,
4251, 306, 325, 348, 323,
4253, 307, 325, 348, 323,
4256, 307, 326, 347, 324,
4258, 306, 326, 346, 324,
4260, 306, 326, 347, 323,
4263, 306, 326, 346, 322,
4265, 307, 325, 346, 323,
4268, 306, 326, 346, 324,
4271, 307, 326, 346, 323,
4273, 307, 325, 346, 323,
4275, 307, 325, 345, 323,
4277, 307, 326, 345, 323,
4280, 306, 326, 344, 323,
4282, 305, 325, 344, 323,
4284, 307, 326, 344, 324,
4287, 307, 325, 344, 323,
4289, 307, 325, 343, 324,
4291, 307, 326, 343, 324,
4294, 307, 326, 343, 323,
4296, 306, 326, 343, 323,
4298, 307, 326, 342, 324,
4301, 307, 326, 343, 324,
4303, 307, 326, 342, 323,
4305, 307, 326, 342, 327,
4308, 307, 326, 342, 322,
4311, 307, 326, 342, 324,
4313, 307, 324, 341, 323,
4316, 307, 325, 340, 323,
4318, 307, 326, 341, 323,
4320, 308, 325, 340, 322,
4323, 307, 325, 343, 323,
4325, 308, 325, 340, 323,
4327, 307, 325, 339, 323,
4330, 307, 326, 339, 324,
4332, 308, 325, 339, 324,
4334, 308, 325, 339, 324,
4337, 307, 325, 339, 323,
4339, 308, 329, 338, 323,
4341, 308, 326, 338, 324,
4344, 308, 325, 337, 323,
4346, 307, 325, 337, 323,
4348, 307, 325, 338, 323,
4352, 307, 325, 337, 323,
4354, 307, 325, 336, 322,
4356, 311, 325, 336, 324,
4359, 307, 325, 336, 323,
4361, 308, 326, 336, 323,
4363, 307, 325, 335, 322,
4365, 308, 325, 334, 323,
4368, 308, 325, 334, 323,
4370, 308, 325, 334, 323,
4372, 309, 325, 334, 323,
4375, 309, 326, 333, 324,
4377, 308, 325, 333, 324,
4379, 308, 325, 333, 323,
4382, 308, 325, 333, 323,
4384, 307, 325, 332, 323,
4386, 308, 325, 332, 324,
4389, 309, 325, 331, 323,
4391, 308, 324, 332, 323,
4393, 309, 324, 331, 322,
4397, 308, 325, 331, 323,
4399, 308, 324, 330, 323,
4401, 308, 324, 331, 323,
4404, 308, 324, 331, 323,
4406, 309, 325, 330, 323,
4408, 308, 324, 329, 323,
4411, 309, 325, 329, 323,
4413, 308, 325, 329, 323,
4415, 307, 325, 329, 323,
4418, 309, 325, 329, 323,
4420, 309, 325, 329, 325,
4422, 309, 324, 328, 323,
4425, 309, 324, 326, 323,
4427, 308, 325, 328, 323,
4429, 309, 324, 328, 322,
4432, 309, 325, 328, 323,
4434, 309, 324, 328, 323,
4436, 308, 325, 328, 323,
4440, 309, 325, 328, 324,
4442, 309, 323, 327, 324,
4444, 309, 324, 327, 324,
4447, 308, 325, 327, 324,
4449, 308, 324, 327, 323,
4451, 309, 324, 326, 324,
4453, 309, 324, 326, 323,
4456, 309, 324, 327, 323,
4458, 308, 324, 326, 323,
4460, 309, 324, 326, 324,
4463, 309, 324, 326, 324,
4465, 309, 324, 327, 324,
4467, 308, 324, 326, 324,
4470, 309, 325, 326, 323,
4472, 309, 325, 325, 323,
4474, 309, 324, 325, 324,
4477, 309, 324, 325, 324,
4480, 309, 324, 325, 323,
4482, 310, 325, 325, 325,
4485, 310, 325, 325, 324,
4487, 310, 325, 324, 324,
4489, 310, 325, 325, 324,
4492, 310, 325, 324, 323,
4494, 310, 325, 325, 323,
4496, 310, 325, 324, 325,
4499, 309, 325, 323, 324,
4501, 310, 325, 323, 323,
4503, 310, 325, 324, 323,
4506, 310, 325, 324, 324,
4508, 310, 325, 324, 324,
4510, 310, 325, 324, 324,
4513, 310, 325, 324, 323,
4515, 310, 329, 325, 324,
4517, 310, 325, 323, 325,
4520, 310, 325, 323, 323,
4523, 310, 324, 324, 324,
4525, 310, 324, 324, 323,
4528, 310, 325, 323, 324,
4530, 310, 325, 323, 325,
4532, 312, 325, 322, 323,
4535, 310, 325, 323, 323,
4537, 311, 325, 323, 323,
4539, 310, 325, 323, 323,
4541, 310, 325, 323, 324,
4544, 310, 325, 323, 323,
4546, 310, 325, 323, 323,
4548, 310, 325, 323, 323,
4551, 311, 325, 322, 324,
4553, 311, 325, 322, 324,
4555, 310, 325, 323, 324,
4558, 310, 325, 322, 323,
4560, 311, 325, 322, 324,
4562, 311, 325, 322, 324,
4566, 311, 325, 322, 324,
4568, 311, 325, 323, 323,
4570, 311, 324, 322, 323,
4573, 311, 325, 322, 323,
4575, 311, 324, 322, 323,
4577, 311, 323, 323, 324,
4580, 311, 324, 323, 323,
4582, 311, 324, 323, 323,
4584, 311, 323, 322, 323,
4587, 311, 323, 322, 324,
4589, 311, 324, 323, 323,
4591, 312, 324, 323, 323,
4594, 311, 324, 323, 324,
4596, 311, 324, 323, 324,
4598, 311, 324, 322, 324,
4601, 311, 324, 323, 323,
4603, 312, 325, 323, 325,
4605, 312, 325, 323, 323,
4609, 311, 325, 322, 324,
4611, 311, 325, 323, 324,
4613, 311, 325, 323, 324,
4616, 311, 325, 322, 324,
4618, 311, 325, 323, 324,
4620, 312, 325, 323, 324,
4622, 312, 325, 323, 325,
4625, 311, 326, 323, 324,
4627, 311, 325, 323, 325,
4629, 311, 325, 324, 324,
4632, 311, 325, 324, 324,
4634, 311, 325, 324, 324,
4636, 312, 324, 324, 325,
4639, 312, 323, 324, 325,
4641, 312, 323, 325, 324,
4643, 311, 323, 325, 324,
4646, 312, 324, 327, 324,
4648, 312, 323, 326, 325,
4651, 312, 323, 326, 324,
4654, 312, 324, 325, 324,
4656, 311, 325, 326, 323,
4658, 312, 325, 326, 325,
4661, 312, 325, 326, 324,
4663, 312, 325, 327, 324,
4665, 312, 325, 327, 324,
4668, 312, 326, 327, 324,
4670, 312, 326, 328, 323,
4672, 312, 325, 327, 324,
4675, 312, 325, 328, 325,
4677, 312, 325, 329, 324,
4679, 311, 325, 328, 325,
4682, 312, 325, 328, 324,
4684, 312, 325, 328, 324,
4686, 312, 325, 329, 323,
4689, 312, 326, 330, 324,
4691, 311, 325, 330, 323,
4694, 312, 325, 330, 324,
4697, 312, 325, 331, 324,
4699, 311, 325, 331, 324,
4701, 311, 326, 332, 324,
4704, 312, 325, 331, 324,
4706, 312, 325, 332, 324,
4708, 313, 325, 333, 325,
4710, 312, 326, 334, 324,
4713, 311, 325, 334, 325,
4715, 311, 325, 334, 325,
4717, 311, 326, 335, 324,
4720, 311, 324, 335, 324,
4722, 310, 326, 335, 323,
4724, 311, 326, 336, 325,
4727, 311, 325, 337, 324,
4729, 311, 325, 337, 324,
4731, 311, 325, 337, 324,
4734, 310, 324, 339, 324,
4737, 310, 324, 340, 325,
4739, 311, 323, 341, 324,
4742, 310, 323, 342, 323,
4744, 310, 324, 341, 323,
4746, 310, 324, 341, 324,
4749, 311, 324, 343, 324,
4751, 310, 324, 344, 323,
4753, 310, 324, 345, 323,
4756, 310, 325, 345, 324,
4758, 311, 325, 344, 325,
4760, 310, 324, 344, 326,
4763, 310, 324, 344, 324,
4765, 309, 324, 344, 325,
4767, 309, 324, 344, 323,
4770, 309, 324, 345, 324,
4772, 309, 324, 345, 324,
4774, 309, 325, 347, 323,
4777, 308, 326, 349, 324,
4780, 309, 325, 347, 324,
4782, 309, 325, 347, 324,
4785, 308, 325, 348, 324,
4787, 308, 324, 348, 323,
4789, 309, 325, 349, 324,
4792, 308, 325, 349, 324,
4794, 308, 324, 349, 325,
4796, 307, 325, 350, 324,
4798, 307, 325, 351, 324,
4801, 307, 325, 351, 325,
4803, 307, 324, 352, 324,
4805, 307, 324, 352, 324,
4808, 307, 325, 352, 324,
4810, 307, 324, 352, 324,
4812, 307, 324, 352, 324,
4815, 307, 324, 353, 324,
4817, 307, 324, 353, 324,
4819, 308, 325, 354, 324,
4823, 308, 324, 354, 325,
4825, 308, 324, 353, 325,
4827, 308, 325, 353, 324,
4830, 307, 324, 354, 324,
4832, 307, 324, 354, 324,
4834, 307, 324, 354, 325,
4837, 307, 324, 354, 324,
4839, 307, 324, 357, 324,
4841, 307, 324, 356, 324,
4844, 307, 324, 357, 323,
4846, 306, 324, 356, 325,
4848, 306, 324, 357, 325,
4851, 306, 324, 356, 324,
4853, 306, 325, 357, 324,
4855, 306, 325, 357, 326,
4858, 306, 324, 358, 325,
4860, 306, 324, 359, 325,
4862, 306, 324, 360, 325,
4866, 306, 324, 359, 326,
4868, 305, 323, 360, 326,
4870, 305, 322, 360, 325,
4873, 305, 323, 362, 325,
4875, 304, 323, 361, 325,
4877, 305, 324, 361, 325,
4880, 305, 323, 360, 325,
4882, 305, 324, 361, 325,
4884, 306, 325, 360, 325,
4886, 305, 325, 359, 325,
4889, 305, 325, 359, 326,
4891, 305, 324, 359, 325,
4893, 304, 325, 359, 325,
4896, 304, 324, 360, 326,
4898, 305, 324, 360, 326,
4900, 303, 325, 360, 326,
4903, 304, 325, 359, 325,
4905, 304, 325, 359, 325,
4908, 304, 325, 358, 325,
4911, 304, 325, 358, 326,
4913, 303, 324, 358, 325,
4915, 303, 324, 358, 325,
4918, 304, 325, 358, 324,
4920, 303, 324, 358, 324,
4922, 304, 324, 359, 325,
4925, 304, 324, 358, 325,
4927, 303, 325, 357, 324,
4929, 304, 324, 356, 324,
4932, 303, 325, 355, 325,
4934, 303, 325, 354, 325,
4936, 302, 325, 354, 327,
4939, 303, 324, 355, 324,
4941, 303, 325, 356, 325,
4943, 303, 325, 355, 325,
4946, 302, 325, 355, 324,
4948, 303, 325, 356, 324,
4951, 302, 325, 355, 324,
4954, 302, 325, 358, 324,
4956, 303, 325, 354, 324,
4958, 301, 325, 354, 324,
4961, 303, 325, 354, 324,
4963, 302, 325, 353, 323,
4965, 301, 325, 352, 324,
4968, 302, 324, 352, 323,
4970, 302, 329, 352, 323,
4972, 302, 325, 351, 323,
4974, 302, 325, 351, 323,
4977, 302, 325, 351, 324,
4979, 301, 325, 353, 323,
4981, 301, 324, 353, 323,
4984, 301, 324, 353, 322,
4986, 303, 323, 353, 324,
4988, 301, 322, 354, 323,
4992, 301, 322, 354, 323,
4994, 301, 323, 354, 322,
4996, 302, 323, 354, 322,
4999, 301, 323, 354, 323,
5001, 302, 323, 354, 323,
5003, 302, 324, 353, 323,
5006, 301, 325, 353, 322,
5008, 302, 324, 353, 323,
5010, 301, 324, 353, 323,
5013, 302, 325, 354, 323,
5015, 301, 325, 353, 322,
5017, 302, 325, 352, 323,
5020, 302, 325, 353, 323,
5022, 302, 325, 353, 322,
5024, 302, 325, 354, 322,
5027, 302, 325, 355, 322,
5029, 302, 325, 355, 321,
5031, 302, 325, 354, 322,
5035, 303, 324, 355, 322,
5037, 302, 325, 355, 322,
5039, 303, 325, 356, 321,
5042, 303, 324, 355, 322,
5044, 303, 324, 356, 322,
5046, 303, 320, 357, 322,
5049, 303, 319, 358, 322,
5051, 304, 320, 358, 322,
5053, 304, 322, 358, 322,
5056, 304, 324, 358, 322,
5058, 304, 323, 359, 322,
5060, 304, 324, 358, 321,
5062, 304, 325, 358, 322,
5065, 304, 325, 359, 322,
5067, 305, 325, 359, 322,
5069, 305, 325, 360, 322,
5072, 305, 326, 360, 321,
5074, 305, 325, 360, 322,
5076, 305, 325, 360, 321,
5080, 305, 325, 359, 321,
5082, 305, 325, 359, 321,
5084, 305, 325, 359, 321,
5087, 306, 325, 359, 321,
5089, 305, 325, 360, 322,
5091, 306, 325, 361, 321,
5094, 306, 324, 361, 321,
5096, 307, 325, 362, 322,
5098, 306, 324, 361, 321,
5101, 307, 323, 361, 320,
5103, 307, 324, 362, 321,
5105, 307, 323, 363, 320,
5108, 308, 324, 364, 321,
5110, 308, 324, 363, 321,
5112, 308, 324, 361, 323,
5115, 308, 322, 362, 321,
5117, 308, 320, 364, 321,
5120, 309, 320, 366, 321,
5123, 309, 322, 367, 321,
5125, 309, 322, 367, 320,
5127, 309, 324, 366, 321,
5130, 309, 325, 369, 321,
5132, 309, 325, 366, 320,
5134, 310, 326, 366, 320,
5137, 311, 326, 366, 320,
5139, 311, 326, 365, 321,
5141, 311, 326, 365, 318,
5144, 311, 326, 365, 319,
5146, 312, 330, 366, 319,
5148, 312, 327, 366, 319,
5150, 312, 326, 366, 319,
5153, 314, 326, 368, 319,
5155, 314, 326, 370, 319,
5157, 316, 326, 370, 321,
5160, 317, 327, 369, 320,
5163, 322, 326, 368, 320,
5165, 318, 326, 368, 319,
5168, 320, 325, 366, 319,
5170, 322, 323, 364, 319,
5172, 323, 323, 365, 321,
5175, 325, 323, 367, 319,
5177, 326, 324, 368, 319,
5179, 328, 324, 368, 318,
5182, 328, 326, 369, 319,
5184, 331, 326, 369, 319,
5186, 333, 325, 369, 319,
5189, 334, 326, 369, 318,
5191, 336, 328, 368, 318,
5193, 337, 326, 368, 319,
5196, 339, 326, 369, 319,
5198, 340, 326, 369, 318,
5200, 341, 326, 369, 318,
5203, 343, 326, 369, 318,
5206, 343, 326, 369, 319,
5208, 344, 325, 370, 318,
5211, 345, 326, 372, 318,
5213, 346, 326, 371, 318,
5215, 346, 326, 370, 317,
5218, 348, 326, 370, 318,
5220, 348, 326, 369, 317,
5222, 348, 326, 369, 318,
5225, 350, 325, 368, 318,
5227, 350, 325, 368, 318,
5229, 350, 325, 368, 318,
5231, 352, 325, 368, 317,
5234, 351, 326, 369, 317,
5236, 352, 325, 368, 318,
5238, 353, 325, 367, 318,
5241, 354, 324, 368, 318,
5243, 354, 324, 367, 317,
5245, 355, 323, 366, 317,
5249, 356, 323, 366, 319,
5251, 356, 323, 366, 318,
5253, 357, 325, 366, 317,
5256, 358, 325, 366, 317,
5258, 358, 325, 366, 316,
5260, 359, 324, 367, 318,
5263, 359, 323, 366, 317,
5265, 359, 322, 365, 317,
5267, 360, 321, 365, 317,
5270, 360, 322, 365, 318,
5272, 361, 322, 364, 318,
5274, 362, 324, 364, 317,
5277, 362, 323, 365, 318,
5279, 363, 325, 365, 318,
5281, 363, 324, 365, 318,
5284, 363, 325, 365, 317,
5286, 364, 325, 367, 317,
5288, 365, 325, 365, 318,
5292, 366, 325, 365, 317,
5294, 368, 325, 364, 318,
5296, 369, 325, 364, 318,
5299, 369, 325, 365, 317,
5301, 371, 326, 364, 317,
5303, 373, 325, 364, 318,
5306, 375, 325, 365, 318,
5308, 377, 324, 364, 318,
5310, 379, 326, 364, 318,
5313, 380, 325, 362, 318,
5315, 381, 325, 361, 319,
5317, 383, 326, 362, 317,
5319, 384, 325, 363, 318,
5322, 386, 326, 362, 319,
5324, 389, 325, 362, 320,
5326, 388, 324, 362, 319,
5329, 390, 325, 362, 319,
5331, 391, 325, 362, 318,
5334, 392, 325, 360, 319,
5337, 394, 325, 362, 320,
5339, 398, 325, 361, 321,
5341, 396, 325, 361, 319,
5344, 396, 325, 361, 319,
5346, 397, 324, 360, 320,
5348, 398, 324, 359, 320,
5351, 398, 325, 360, 319,
5353, 399, 325, 360, 320,
5355, 399, 325, 360, 320,
5358, 400, 325, 359, 321,
5360, 400, 325, 359, 320,
5362, 400, 325, 359, 320,
5365, 399, 325, 359, 320,
5367, 400, 325, 358, 320,
5369, 400, 324, 358, 321,
5372, 401, 324, 357, 320,
5374, 401, 324, 356, 320,
5377, 400, 325, 356, 320,
5380, 401, 325, 356, 321,
5382, 401, 324, 357, 321,
5384, 400, 325, 357, 320,
5387, 400, 324, 356, 321,
5389, 400, 324, 356, 322,
5391, 401, 324, 357, 323,
5394, 400, 324, 357, 321,
5396, 400, 324, 356, 322,
5398, 400, 324, 357, 321,
5401, 400, 323, 356, 322,
5403, 400, 323, 356, 322,
5405, 400, 323, 357, 321,
5407, 400, 323, 361, 321,
5410, 399, 324, 357, 322,
5412, 400, 323, 357, 322,
5414, 399, 322, 357, 322,
5417, 399, 323, 356, 322,
5420, 400, 324, 355, 321,
5422, 400, 323, 355, 323,
5425, 400, 327, 355, 323,
5427, 399, 324, 355, 322,
5429, 399, 323, 355, 322,
5432, 399, 324, 355, 322,
5434, 399, 323, 355, 323,
5436, 399, 324, 355, 322,
5439, 399, 324, 355, 322,
5441, 398, 324, 355, 322,
5443, 399, 324, 354, 321,
5446, 398, 323, 354, 323,
5448, 398, 323, 354, 323,
5450, 398, 324, 355, 322,
5453, 398, 324, 355, 324,
5455, 398, 323, 356, 324,
5457, 398, 323, 355, 324,
5460, 397, 323, 356, 323,
5463, 396, 323, 356, 323,
5465, 397, 324, 354, 324,
5468, 396, 324, 354, 324,
5470, 395, 324, 354, 324,
5472, 395, 323, 355, 324,
5475, 394, 323, 354, 323,
5477, 394, 324, 354, 326,
5479, 393, 323, 354, 324,
5482, 392, 323, 355, 324,
5484, 392, 324, 355, 324,
5486, 392, 323, 354, 324,
5489, 392, 323, 353, 324,
5491, 391, 323, 354, 325,
5493, 390, 324, 354, 323,
5495, 390, 324, 354, 324,
5498, 390, 324, 354, 324,
5500, 389, 323, 353, 324,
5502, 388, 324, 354, 324,
5506, 388, 323, 354, 324,
5508, 388, 323, 354, 325,
5510, 387, 323, 353, 325,
5513, 386, 323, 354, 325,
5515, 386, 323, 354, 326,
5517, 385, 323, 354, 324,
5520, 384, 323, 354, 324,
5522, 384, 323, 354, 325,
5524, 383, 323, 353, 325,
5527, 382, 322, 354, 325,
5529, 381, 324, 353, 325,
5531, 380, 323, 353, 326,
5534, 380, 324, 354, 327,
5536, 379, 323, 354, 325,
5538, 379, 324, 354, 325,
5541, 378, 324, 353, 326,
5543, 376, 323, 353, 326,
5545, 376, 324, 353, 325,
5549, 375, 323, 354, 324,
5551, 373, 324, 353, 325,
5553, 373, 324, 353, 326,
5556, 373, 323, 354, 325,
5558, 372, 324, 353, 325,
5560, 371, 323, 354, 325,
5563, 370, 324, 353, 325,
5565, 369, 323, 352, 326,
5567, 368, 324, 352, 330,
5570, 367, 324, 352, 325,
5572, 366, 324, 353, 325,
5574, 366, 324, 353, 326,
5577, 365, 324, 352, 325,
5579, 363, 323, 353, 325,
5581, 363, 324, 353, 325,
5583, 362, 324, 355, 325,
5586, 361, 324, 352, 327,
5588, 360, 324, 352, 326,
5591, 359, 324, 352, 325,
5594, 358, 324, 351, 325,
5596, 357, 324, 351, 322,
5598, 356, 324, 351, 324,
5601, 356, 327, 352, 323,
5603, 355, 324, 351, 324,
5605, 354, 323, 352, 325,
5608, 353, 323, 351, 326,
5610, 352, 324, 350, 326,
5612, 351, 324, 350, 326,
5615, 350, 323, 351, 326,
5617, 351, 323, 350, 327,
5619, 349, 324, 350, 328,
5622, 348, 324, 350, 327,
5624, 347, 324, 351, 327,
5626, 347, 324, 350, 326,
5629, 345, 325, 351, 327,
5632, 345, 324, 350, 328,
5634, 344, 323, 350, 328,
5637, 343, 325, 350, 327,
5639, 343, 325, 349, 327,
5641, 342, 324, 349, 328,
5644, 342, 323, 349, 328,
5646, 341, 324, 349, 328,
5648, 340, 324, 349, 327,
5651, 340, 323, 348, 329,
5653, 339, 324, 348, 329,
5655, 339, 323, 349, 328,
5658, 337, 324, 348, 328,
5660, 337, 324, 348, 328,
5662, 337, 325, 347, 330,
5665, 336, 323, 348, 328,
5667, 336, 324, 348, 328,
5669, 335, 324, 347, 328,
5671, 335, 324, 347, 329,
5675, 335, 325, 347, 329,
5677, 334, 324, 347, 329,
5679, 334, 324, 347, 328,
5682, 333, 325, 347, 328,
5684, 333, 324, 346, 329,
5686, 333, 324, 346, 329,
5689, 332, 324, 346, 329,
5691, 335, 324, 346, 329,
5693, 332, 325, 345, 329,
5696, 331, 325, 345, 330,
5698, 331, 325, 345, 329,
5700, 331, 324, 345, 329,
5703, 331, 324, 345, 330,
5705, 331, 324, 345, 329,
5707, 331, 324, 345, 329,
5710, 331, 324, 344, 329,
5712, 330, 325, 345, 328,
5714, 331, 325, 344, 329,
5718, 330, 325, 344, 330,
5720, 329, 325, 344, 329,
5722, 330, 325, 344, 329,
5725, 330, 326, 344, 330,
5727, 329, 325, 343, 330,
5729, 330, 325, 343, 329,
5732, 329, 325, 343, 329,
5734, 329, 325, 344, 329,
5736, 329, 325, 343, 328,
5739, 329, 325, 343, 329,
5741, 329, 325, 343, 329,
5743, 328, 325, 342, 331,
5746, 328, 325, 342, 329,
5748, 327, 326, 342, 327,
5750, 328, 325, 342, 330,
5753, 327, 326, 342, 329,
5755, 327, 325, 342, 329,
5757, 327, 325, 342, 330,
5760, 327, 325, 342, 330,
5763, 327, 325, 341, 330,
5765, 326, 326, 342, 330,
5767, 326, 326, 342, 330,
5770, 327, 325, 341, 331,
5772, 326, 326, 341, 330,
5774, 326, 326, 341, 330,
5777, 326, 325, 341, 330,
5779, 326, 326, 341, 330,
5781, 326, 325, 341, 330,
5784, 326, 326, 340, 331,
5786, 326, 325, 341, 330,
5788, 326, 326, 340, 331,
5791, 325, 327, 341, 330,
5793, 329, 325, 340, 331,
5795, 325, 326, 340, 330,
5798, 324, 325, 340, 330,
5800, 324, 326, 341, 329,
5803, 325, 326, 340, 330,
5806, 325, 325, 340, 330,
5808, 324, 326, 340, 330,
5810, 324, 325, 340, 330,
5813, 324, 326, 339, 330,
5815, 324, 326, 339, 332,
5817, 323, 326, 339, 330,
5820, 323, 326, 338, 330,
5822, 323, 326, 339, 330,
5824, 323, 327, 339, 330,
5827, 323, 326, 339, 331,
5829, 323, 326, 339, 331,
5831, 322, 326, 339, 330,
5834, 322, 326, 339, 330,
5836, 322, 326, 338, 331,
5838, 322, 326, 338, 331,
5840, 322, 326, 339, 330,
5843, 321, 325, 339, 330,
5846, 321, 325, 338, 330,
5848, 321, 325, 338, 330,
5851, 321, 326, 338, 331,
5853, 321, 326, 338, 330,
5855, 321, 326, 338, 330,
5858, 320, 326, 338, 330,
5860, 320, 325, 337, 331,
5862, 320, 326, 337, 330,
5865, 319, 326, 337, 330,
5867, 320, 326, 337, 330,
5869, 319, 326, 336, 331,
5872, 319, 326, 337, 330,
5874, 319, 326, 337, 330,
5876, 319, 325, 337, 330,
5879, 319, 326, 336, 330,
5881, 318, 325, 336, 331,
5883, 318, 326, 337, 330,
5886, 318, 325, 336, 330,
5889, 318, 326, 336, 329,
5891, 317, 325, 336, 329,
5894, 317, 325, 336, 330,
5896, 317, 325, 336, 330,
5898, 317, 325, 336, 329,
5901, 316, 326, 336, 330,
5903, 317, 325, 336, 330,
5905, 316, 326, 336, 329,
5908, 316, 325, 336, 329,
5910, 315, 327, 336, 329,
5912, 315, 326, 336, 330,
5915, 316, 326, 335, 329,
5917, 315, 325, 336, 329,
5919, 315, 325, 337, 329,
5922, 315, 325, 335, 329,
5924, 315, 326, 335, 331,
5926, 315, 325, 335, 330,
5928, 314, 326, 336, 329,
5932, 314, 326, 335, 329,
5934, 313, 325, 335, 328,
5936, 313, 325, 336, 329,
5939, 314, 325, 335, 329,
5941, 313, 326, 335, 329,
5943, 313, 326, 335, 329,
5946, 313, 326, 334, 330,
5948, 313, 326, 334, 328,
5950, 312, 325, 335, 329,
5953, 312, 326, 335, 329,
5955, 313, 326, 335, 330,
5957, 313, 326, 334, 330,
5960, 312, 325, 334, 329,
5962, 312, 326, 334, 329,
5964, 312, 326, 334, 329,
5967, 311, 326, 335, 330,
5969, 314, 326, 335, 329,
5971, 311, 325, 335, 329,
5975, 311, 326, 335, 328,
5977, 311, 325, 335, 328,
5979, 311, 326, 334, 329,
5982, 311, 324, 335, 328,
5984, 310, 325, 335, 328,
5986, 311, 326, 334, 327,
5989, 311, 326, 334, 328,
5991, 309, 325, 334, 328,
5993, 309, 325, 335, 328,
5996, 309, 325, 335, 328,
5998, 308, 326, 334, 328,
6000, 309, 326, 334, 330,
6003, 309, 325, 333, 329,
6005, 309, 325, 334, 329,
6007, 309, 326, 334, 328,
6010, 309, 326, 335, 329,
6012, 309, 325, 333, 329,
6014, 309, 325, 334, 329,
6017, 308, 325, 333, 329,
6020, 308, 326, 333, 327,
6022, 308, 325, 333, 331,
6024, 308, 325, 333, 328,
6027, 308, 326, 333, 328,
6029, 307, 326, 333, 328,
6031, 307, 325, 333, 329,
6034, 307, 325, 333, 329,
6036, 307, 326, 333, 328,
6038, 307, 326, 335, 329,
6041, 307, 326, 333, 327,
6043, 307, 326, 333, 329,
6045, 306, 325, 332, 329,
6048, 307, 325, 332, 328,
6050, 306, 325, 333, 328,
6052, 307, 326, 333, 328,
6055, 306, 329, 333, 329,
6057, 307, 325, 332, 328,
6060, 307, 326, 333, 328,
6063, 306, 326, 333, 327,
6065, 306, 326, 332, 328,
6067, 305, 325, 332, 328,
6070, 305, 325, 332, 328,
6072, 305, 326, 333, 327,
6074, 305, 326, 332, 327,
6077, 306, 325, 332, 328,
6079, 305, 325, 332, 328,
6081, 305, 325, 332, 327,
6084, 304, 326, 332, 328,
6086, 305, 326, 332, 326,
6088, 305, 326, 332, 327,
6091, 305, 325, 332, 327,
6093, 304, 325, 332, 327,
6095, 304, 325, 332, 327,
6098, 305, 325, 331, 327,
6100, 305, 325, 331, 327,
6103, 305, 325, 331, 327,
6105, 304, 325, 331, 326,
6108, 306, 326, 331, 328,
6110, 304, 325, 331, 326,
6112, 304, 326, 331, 326,
6115, 304, 325, 331, 327,
6117, 304, 325, 331, 326,
6119, 304, 325, 330, 326,
6122, 305, 325, 331, 327,
6124, 304, 324, 331, 325,
6126, 304, 325, 330, 326,
6129, 304, 325, 331, 326,
6131, 304, 324, 330, 326,
6133, 304, 324, 330, 325,
6136, 304, 324, 331, 325,
6138, 304, 325, 330, 326,
6140, 304, 325, 329, 326,
6144, 304, 325, 330, 327,
6146, 304, 325, 330, 326,
6148, 303, 325, 330, 326,
6151, 303, 325, 330, 325,
6153, 303, 325, 330, 327,
6155, 303, 324, 330, 326,
6158, 304, 323, 330, 326,
6160, 303, 325, 330, 326,
6162, 303, 325, 330, 325,
6165, 303, 324, 330, 327,
6167, 303, 324, 330, 326,
6169, 303, 324, 330, 326,
6172, 304, 325, 330, 327,
6174, 301, 324, 330, 327,
6176, 304, 324, 330, 327,
6179, 303, 325, 330, 326,
6181, 303, 323, 330, 326,
6183, 304, 325, 330, 327,
6187, 303, 324, 330, 327,
6189, 303, 324, 329, 327,
6191, 303, 325, 330, 326,
6193, 303, 325, 329, 327,
6196, 303, 324, 329, 326,
6198, 303, 324, 329, 330,
6200, 303, 324, 329, 326,
6203, 303, 324, 329, 326,
6205, 303, 325, 329, 326,
6207, 303, 324, 328, 326,
6210, 303, 325, 329, 325,
6212, 303, 325, 329, 325,
6214, 304, 325, 331, 325,
6217, 303, 324, 328, 325,
6219, 303, 324, 328, 327,
6221, 303, 325, 329, 326,
6224, 303, 324, 329, 326,
6226, 303, 325, 328, 325,
6228, 303, 325, 328, 328,
6232, 303, 328, 328, 327,
6234, 303, 324, 328, 326,
6236, 304, 325, 329, 326,
6239, 303, 324, 328, 326,
6241, 303, 325, 328, 327,
6243, 304, 324, 328, 327,
6246, 303, 324, 329, 326,
6248, 306, 325, 328, 326,
6250, 303, 325, 328, 327,
6253, 303, 325, 328, 327,
6255, 304, 324, 328, 326,
6257, 303, 324, 329, 326,
6260, 303, 325, 328, 327,
6262, 303, 325, 327, 328,
6264, 303, 325, 327, 327,
6267, 303, 325, 328, 326,
6269, 304, 325, 327, 327,
6272, 303, 325, 327, 327,
6275, 304, 324, 327, 327,
6277, 304, 325, 328, 327,
6279, 304, 324, 327, 326,
6281, 304, 324, 327, 326,
6284, 304, 324, 327, 326,
6286, 304, 324, 327, 325,
6288, 304, 325, 328, 326,
6291, 304, 323, 328, 326,
6293, 305, 324, 327, 327,
6295, 304, 324, 327, 327,
6298, 304, 323, 328, 326,
6300, 305, 324, 327, 326,
6302, 305, 324, 327, 326,
6305, 305, 325, 327, 328,
6307, 305, 324, 327, 327,
6309, 305, 324, 327, 326,
6312, 305, 325, 328, 326,
6315, 305, 324, 327, 326,
6317, 305, 324, 326, 326,
6320, 305, 324, 327, 327,
6322, 306, 324, 327, 327,
6324, 307, 325, 327, 326,
6327, 307, 325, 326, 327,
6329, 306, 325, 326, 327,
6331, 306, 325, 326, 326,
6334, 306, 323, 326, 326,
6336, 307, 325, 326, 326,
6338, 307, 325, 326, 328,
6341, 307, 324, 326, 327,
6343, 307, 325, 325, 327,
6345, 307, 325, 327, 327,
6348, 307, 325, 326, 327,
6350, 307, 325, 325, 327,
6352, 308, 325, 326, 327,
6355, 308, 325, 326, 328,
6358, 308, 326, 326, 327,
6360, 309, 325, 326, 329,
6363, 308, 324, 326, 328,
6365, 308, 325, 327, 328,
6367, 309, 325, 326, 329,
6369, 309, 325, 326, 328,
6372, 309, 325, 326, 329,
6374, 310, 325, 325, 331,
6376, 310, 326, 326, 328,
6379, 310, 325, 326, 328,
6381, 310, 325, 325, 329,
6383, 310, 324, 325, 328,
6386, 311, 325, 325, 328,
6388, 311, 325, 325, 326,
6390, 312, 325, 327, 323,
6393, 312, 325, 325, 323,
6395, 313, 325, 325, 324,
6397, 311, 325, 325, 326,
6401, 312, 326, 324, 326,
6403, 313, 325, 324, 328,
6405, 313, 325, 325, 328,
6408, 313, 326, 326, 328,
6410, 314, 325, 326, 328,
6412, 314, 324, 325, 328,
6415, 314, 325, 325, 330,
6417, 315, 325, 324, 329,
6419, 315, 326, 324, 329,
6422, 316, 326, 325, 329,
6424, 319, 326, 324, 328,
6426, 317, 325, 324, 330,
6429, 317, 325, 324, 330,
6431, 318, 326, 325, 330,
6433, 318, 326, 325, 329,
6436, 319, 325, 325, 330,
6438, 320, 326, 324, 330,
6440, 320, 326, 325, 330,
6444, 320, 326, 325, 329,
6446, 321, 326, 325, 331,
6448, 322, 326, 324, 329,
6450, 322, 326, 324, 328,
6453, 323, 326, 325, 327,
6455, 323, 326, 324, 326,
6457, 324, 325, 324, 326,
6460, 325, 325, 324, 327,
6462, 325, 325, 323, 328,
6464, 326, 325, 324, 329,
6467, 325, 326, 323, 328,
6469, 326, 325, 323, 329,
6471, 327, 325, 324, 328,
6474, 327, 325, 324, 328,
6476, 327, 325, 324, 329,
6478, 328, 325, 324, 331,
6481, 329, 326, 325, 331,
6483, 329, 325, 324, 330,
6486, 329, 325, 324, 330,
6489, 329, 326, 324, 330,
6491, 330, 325, 324, 332,
6493, 330, 324, 325, 331,
6496, 330, 325, 322, 331,
6498, 330, 325, 323, 331,
6500, 331, 325, 323, 330,
6503, 331, 325, 323, 332,
6505, 332, 325, 323, 331,
6507, 332, 325, 323, 331,
6510, 332, 325, 324, 331,
6512, 332, 325, 323, 332,
6514, 332, 324, 323, 332,
6517, 332, 324, 324, 331,
6519, 332, 324, 323, 331,
6521, 332, 325, 323, 330,
6524, 333, 325, 323, 329,
6526, 333, 324, 323, 328,
6529, 333, 324, 324, 327,
6532, 333, 324, 323, 328,
6534, 332, 324, 323, 329,
6536, 333, 324, 324, 331,
6538, 333, 324, 323, 330,
6541, 333, 325, 323, 330,
6543, 334, 324, 324, 330,
6545, 333, 324, 323, 331,
6548, 333, 324, 324, 331,
6550, 333, 325, 323, 332,
6552, 334, 325, 324, 332,
6555, 334, 324, 324, 332,
6557, 334, 324, 323, 332,
6559, 334, 325, 323, 333,
6562, 333, 324, 324, 332,
6564, 333, 325, 323, 332,
6566, 334, 325, 324, 333,
6569, 334, 325, 323, 333,
6572, 334, 324, 324, 333,
6574, 334, 325, 323, 332,
6577, 334, 325, 323, 332,
6579, 334, 324, 323, 332,
6581, 334, 324, 323, 333,
6584, 334, 326, 323, 332,
6586, 334, 326, 323, 332,
6588, 334, 325, 323, 332,
6591, 333, 325, 323, 329,
6593, 333, 325, 323, 326,
6595, 333, 324, 322, 326,
6598, 333, 325, 322, 328,
6600, 334, 324, 322, 331,
6602, 333, 325, 322, 331,
6605, 333, 325, 322, 331,
6607, 333, 326, 322, 332,
6609, 332, 326, 322, 331,
6612, 333, 324, 323, 333,
6615, 332, 326, 322, 332,
6617, 332, 326, 323, 333,
6620, 332, 326, 322, 333,
6622, 332, 327, 322, 333,
6624, 332, 326, 322, 333,
6626, 332, 327, 322, 332,
6629, 331, 326, 322, 334,
6631, 332, 326, 322, 333,
6633, 331, 326, 322, 333,
6636, 331, 326, 322, 333,
6638, 331, 326, 322, 332,
6640, 331, 326, 322, 333,
6643, 331, 327, 321, 334,
6645, 332, 326, 321, 333,
6647, 330, 326, 322, 332,
6650, 330, 327, 321, 332,
6652, 330, 327, 321, 336,
6654, 331, 326, 321, 332,
6658, 331, 329, 321, 332,
6660, 330, 327, 321, 332,
6662, 330, 327, 321, 331,
6665, 330, 327, 321, 332,
6667, 330, 327, 321, 332,
6669, 329, 327, 320, 331,
6672, 329, 326, 321, 331,
6674, 327, 327, 321, 331,
6676, 330, 327, 319, 332,
6679, 330, 327, 319, 331,
6681, 329, 327, 318, 330,
6683, 329, 327, 319, 330,
6686, 329, 327, 319, 330,
6688, 329, 327, 318, 330,
6690, 329, 327, 318, 330,
6693, 329, 327, 318, 330,
6695, 329, 328, 318, 328,
6697, 329, 327, 317, 329,
6701, 329, 326, 317, 327,
6703, 328, 327, 317, 327,
6705, 329, 326, 317, 325,
6708, 329, 326, 316, 327,
6710, 329, 327, 316, 329,
6712, 329, 327, 316, 329,
6714, 328, 328, 315, 329,
6717, 328, 328, 315, 329,
6719, 328, 328, 314, 330,
6721, 328, 327, 315, 329,
6724, 329, 327, 314, 329,
6726, 328, 327, 314, 329,
6728, 329, 327, 313, 328,
6731, 328, 327, 313, 330,
6733, 328, 327, 312, 330,
6735, 327, 327, 312, 330,
6738, 328, 328, 311, 330,
6740, 328, 327, 310, 330,
6743, 328, 327, 310, 329,
6746, 328, 327, 310, 329,
6748, 328, 327, 310, 329,
6750, 328, 327, 309, 329,
6753, 328, 327, 308, 330,
6755, 328, 327, 308, 329,
6757, 327, 327, 307, 328,
6760, 327, 327, 306, 328,
6762, 327, 328, 306, 328,
6764, 326, 327, 305, 330,
6767, 327, 327, 304, 330,
6769, 326, 327, 304, 330,
6771, 327, 328, 302, 329,
6774, 327, 327, 302, 328,
6776, 327, 327, 301, 329,
6778, 327, 326, 301, 329,
6781, 326, 326, 301, 329,
6784, 327, 327, 298, 330,
6786, 327, 327, 298, 330,
6789, 326, 327, 297, 329,
6791, 327, 326, 296, 328,
6793, 327, 327, 294, 328,
6796, 327, 327, 293, 330,
6798, 327, 327, 293, 330,
6800, 327, 326, 291, 330,
6802, 328, 327, 290, 329,
6805, 328, 327, 288, 328,
6807, 329, 326, 286, 329,
6809, 330, 326, 285, 329,
6812, 329, 326, 283, 330,
6814, 330, 327, 281, 330,
6816, 330, 326, 280, 330,
6819, 332, 326, 278, 329,
6821, 332, 327, 276, 328,
6823, 332, 326, 274, 328,
6827, 334, 326, 271, 329,
6829, 334, 326, 269, 334,
6831, 334, 325, 267, 330,
6834, 335, 327, 264, 330,
6836, 336, 326, 262, 330,
6838, 336, 326, 260, 328,
6841, 337, 326, 258, 330,
6843, 338, 326, 257, 329,
6845, 339, 326, 259, 330,
6848, 339, 327, 253, 329,
6850, 340, 326, 251, 330,
6852, 340, 325, 248, 329,
6855, 341, 326, 247, 327,
6857, 341, 325, 246, 326,
6859, 342, 326, 244, 328,
6862, 342, 329, 244, 328,
6864, 342, 325, 242, 328,
6866, 343, 325, 243, 329,
6870, 342, 326, 242, 328,
6872, 343, 325, 241, 327,
6874, 343, 325, 240, 327,
6877, 343, 324, 241, 327,
6879, 345, 326, 241, 326,
6881, 343, 326, 241, 326,
6884, 343, 324, 240, 327,
6886, 343, 325, 240, 327,
6888, 343, 325, 240, 328,
6890, 344, 324, 239, 328,
6893, 344, 325, 240, 329,
6895, 342, 325, 239, 329,
6897, 342, 325, 240, 328,
6900, 342, 325, 240, 329,
6902, 342, 325, 239, 329,
6904, 342, 325, 238, 330,
6907, 342, 325, 238, 329,
6909, 341, 324, 238, 328,
6912, 341, 325, 238, 328,
6915, 340, 325, 239, 327,
6917, 340, 324, 238, 329,
6919, 340, 325, 239, 327,
6922, 340, 324, 239, 327,
6924, 341, 324, 238, 327,
6926, 339, 325, 238, 328,
6929, 339, 325, 239, 327,
6931, 338, 324, 239, 327,
6933, 338, 325, 239, 327,
6936, 338, 325, 238, 327,
6938, 338, 325, 240, 328,
6940, 337, 324, 239, 327,
6943, 337, 324, 240, 326,
6945, 336, 325, 240, 326,
6947, 336, 325, 239, 327,
6950, 336, 324, 240, 326,
6952, 336, 324, 240, 326,
6955, 335, 325, 241, 326,
6958, 335, 325, 241, 326,
6960, 335, 324, 240, 326,
6962, 334, 324, 241, 325,
6965, 333, 324, 242, 325,
6967, 333, 323, 242, 325,
6969, 332, 324, 243, 326,
6972, 332, 323, 243, 325,
6974, 332, 323, 244, 325,
6976, 331, 324, 244, 324,
6978, 332, 323, 244, 325,
6981, 331, 324, 245, 326,
6983, 331, 323, 245, 324,
6985, 330, 323, 246, 324,
6988, 330, 324, 246, 323,
6990, 329, 323, 246, 323,
6992, 329, 323, 247, 324,
6995, 329, 323, 248, 324,
6998, 328, 323, 248, 324,
7000, 328, 323, 249, 324,
7003, 328, 323, 249, 324,
7005, 328, 322, 250, 324,
7007, 326, 323, 250, 323,
7010, 326, 323, 251, 324,
7012, 327, 323, 251, 324,
7014, 325, 322, 252, 325,
7017, 325, 322, 252, 323,
7019, 325, 322, 253, 323,
7021, 325, 322, 254, 323,
7024, 324, 323, 254, 322,
7026, 324, 322, 254, 323,
7028, 324, 322, 256, 322,
7031, 323, 323, 256, 322,
7033, 323, 323, 257, 320,
7035, 323, 322, 257, 323,
7038, 323, 327, 258, 322,
7041, 323, 322, 259, 322,
7043, 322, 322, 259, 322,
7046, 322, 323, 259, 323,
7048, 322, 322, 259, 322,
7050, 321, 322, 260, 322,
7053, 321, 323, 261, 322,
7055, 324, 322, 261, 322,
7057, 320, 322, 261, 323,
7059, 320, 322, 263, 321,
7062, 320, 322, 263, 321,
7064, 319, 322, 263, 320,
7066, 320, 321, 264, 321,
7069, 319, 322, 264, 322,
7071, 319, 322, 265, 321,
7073, 319, 322, 265, 321,
7076, 318, 323, 266, 320,
7078, 319, 322, 266, 321,
7080, 318, 322, 266, 321,
7084, 316, 322, 267, 321,
7086, 317, 322, 268, 321,
7088, 318, 322, 268, 321,
7091, 318, 322, 269, 322,
7093, 317, 321, 270, 319,
7095, 316, 322, 270, 319,
7098, 316, 322, 271, 318,
7100, 316, 321, 272, 318,
7102, 316, 321, 272, 319,
7105, 316, 321, 272, 320,
7107, 316, 322, 273, 319,
7109, 316, 321, 273, 319,
7112, 316, 321, 274, 320,
7114, 315, 321, 274, 320,
7116, 315, 322, 275, 320,
7119, 315, 321, 276, 319,
7121, 315, 322, 276, 320,
7123, 315, 322, 276, 320,
7127, 315, 322, 276, 320,
7129, 315, 322, 277, 319,
7131, 313, 322, 278, 319,
7134, 314, 323, 278, 320,
7136, 314, 322, 279, 320,
7138, 314, 322, 279, 320,
7141, 314, 325, 279, 320,
7143, 314, 323, 280, 320,
7145, 313, 323, 280, 321,
7147, 313, 322, 281, 320,
7150, 313, 322, 281, 320,
7152, 313, 323, 282, 320,
7154, 313, 322, 282, 320,
7157, 313, 321, 282, 320,
7159, 313, 323, 283, 320,
7161, 312, 323, 284, 320,
7164, 313, 323, 284, 320,
7166, 312, 322, 284, 321,
7169, 312, 322, 285, 320,
7172, 313, 322, 285, 320,
7174, 312, 323, 286, 321,
7176, 313, 323, 286, 319,
7179, 312, 323, 286, 320,
7181, 312, 322, 287, 324,
7183, 312, 323, 287, 320,
7186, 311, 323, 288, 319,
7188, 312, 323, 288, 321,
7190, 312, 322, 288, 321,
7193, 312, 323, 289, 320,
7195, 311, 322, 290, 320,
7197, 311, 323, 290, 321,
7200, 311, 323, 290, 321,
7202, 311, 323, 290, 321,
7204, 311, 323, 291, 320,
7207, 311, 324, 291, 320,
7209, 311, 324, 291, 320,
7212, 311, 323, 291, 320,
7215, 311, 324, 293, 320,
7217, 311, 324, 292, 320,
7219, 310, 324, 292, 320,
7222, 311, 323, 292, 321,
7224, 311, 323, 293, 321,
7226, 311, 323, 291, 321,
7229, 311, 324, 293, 321,
7231, 311, 324, 293, 321,
7233, 311, 324, 294, 321,
7235, 310, 324, 294, 320,
7238, 311, 324, 295, 321,
7240, 311, 324, 294, 320,
7242, 311, 323, 295, 321,
7245, 311, 324, 295, 321,
7247, 311, 324, 295, 321,
7249, 311, 324, 295, 320,
7252, 310, 325, 295, 320,
7255, 311, 324, 296, 323,
7257, 311, 324, 296, 321,
7260, 310, 326, 296, 321,
7262, 311, 325, 296, 321,
7264, 311, 325, 296, 322,
7267, 311, 325, 296, 321,
7269, 311, 325, 297, 321,
7271, 311, 325, 297, 321,
7274, 312, 325, 297, 322,
7276, 311, 326, 297, 322,
7278, 311, 325, 297, 322,
7281, 311, 325, 298, 322,
7283, 311, 325, 298, 324,
7285, 311, 325, 298, 321,
7288, 311, 325, 298, 322,
7290, 311, 325, 298, 322,
7292, 311, 326, 299, 322,
7296, 311, 326, 299, 322,
7298, 311, 325, 299, 323,
7300, 311, 325, 303, 322,
7303, 311, 324, 300, 322,
7305, 311, 325, 299, 324,
7307, 312, 325, 300, 323,
7310, 311, 325, 300, 322,
7312, 311, 325, 300, 322,
7314, 311, 325, 301, 322,
7317, 312, 328, 301, 322,
7319, 311, 325, 300, 323,
7321, 312, 325, 301, 322,
7323, 311, 325, 301, 322,
7326, 312, 324, 301, 322,
7328, 311, 325, 301, 322,
7330, 311, 324, 301, 322,
7333, 314, 325, 301, 322,
7335, 311, 325, 302, 322,
7337, 312, 325, 302, 322,
7341, 312, 325, 302, 323,
7343, 312, 324, 302, 323,
7345, 311, 325, 303, 322,
7348, 311, 324, 303, 322,
7350, 312, 325, 302, 323,
7352, 312, 325, 303, 323,
7355, 312, 325, 303, 322,
7357, 312, 325, 304, 322,
7359, 312, 325, 304, 322,
7362, 311, 325, 304, 322,
7364, 312, 325, 304, 322,
7366, 311, 324, 304, 323,
7369, 311, 326, 305, 322,
7371, 312, 326, 305, 322,
7373, 312, 324, 305, 323,
7376, 312, 325, 305, 323,
7378, 312, 324, 305, 323,
7380, 312, 324, 306, 322,
7384, 313, 325, 305, 323,
7386, 313, 325, 305, 323,
7388, 312, 325, 305, 323,
7391, 312, 326, 306, 323,
7393, 311, 325, 306, 322,
7395, 312, 325, 306, 323,
7398, 311, 324, 307, 322,
7400, 312, 325, 307, 322,
7402, 312, 326, 306, 322,
7405, 312, 325, 307, 323,
7407, 313, 326, 307, 323,
7409, 312, 326, 308, 323,
7411, 312, 325, 307, 322,
7414, 312, 327, 307, 322,
7416, 312, 325, 308, 323,
7418, 312, 325, 308, 322,
7421, 312, 326, 309, 323,
7424, 312, 326, 309, 322,
7426, 312, 326, 308, 323,
7429, 312, 326, 308, 324,
7431, 312, 325, 309, 323,
7433, 311, 326, 309, 323,
7436, 311, 327, 310, 322,
7438, 311, 326, 310, 322,
7440, 312, 326, 310, 324,
7443, 312, 326, 310, 323,
7445, 311, 326, 310, 322,
7447, 312, 326, 310, 322,
7450, 312, 326, 311, 322,
7452, 312, 326, 311, 322,
7454, 312, 326, 311, 322,
7457, 312, 325, 312, 322,
7459, 313, 326, 311, 323,
7461, 312, 325, 311, 324,
7464, 312, 326, 312, 323,
7467, 312, 325, 313, 323,
7469, 312, 326, 312, 323,
7472, 312, 326, 312, 324,
7474, 312, 326, 312, 323,
7476, 312, 326, 317, 323,
7479, 311, 326, 313, 323,
7481, 312, 326, 313, 323,
7483, 311, 326, 313, 324,
7486, 311, 326, 313, 324,
7488, 311, 325, 314, 322,
7490, 311, 327, 315, 323,
7493, 312, 328, 314, 323,
7495, 312, 326, 314, 324,
7497, 311, 326, 315, 323,
7499, 310, 326, 315, 323,
7502, 311, 327, 315, 324,
7504, 311, 326, 315, 324,
7506, 311, 326, 316, 323,
7510, 313, 326, 316, 323,
7512, 311, 326, 316, 323,
7514, 311, 326, 316, 322,
7517, 311, 326, 316, 324,
7519, 311, 326, 317, 324,
7521, 311, 326, 316, 324,
7524, 311, 327, 317, 323,
7526, 310, 326, 317, 324,
7528, 311, 326, 316, 324,
7531, 311, 326, 318, 323,
7533, 310, 326, 318, 324,
7535, 311, 326, 317, 324,
7538, 310, 326, 318, 324,
7540, 311, 326, 318, 323,
7542, 311, 326, 319, 323,
7545, 310, 326, 318, 323,
7547, 311, 326, 319, 324,
7549, 311, 326, 319, 324,
7553, 311, 326, 319, 324,
7555, 310, 326, 320, 324,
7557, 311, 327, 320, 324,
7560, 311, 326, 320, 324,
7562, 311, 326, 320, 324,
7564, 310, 325, 321, 323,
7567, 310, 326, 321, 324,
7569, 311, 327, 321, 325,
7571, 311, 325, 321, 324,
7574, 310, 326, 322, 324,
7576, 311, 325, 322, 324,
7578, 310, 325, 322, 324,
7581, 311, 325, 322, 324,
7583, 311, 325, 323, 324,
7585, 311, 325, 323, 323,
7587, 311, 325, 323, 324,
7590, 310, 326, 323, 323,
7592, 311, 325, 324, 324,
7595, 311, 325, 324, 324,
7598, 311, 326, 324, 323,
7600, 311, 326, 324, 323,
7602, 311, 326, 324, 324,
7605, 311, 326, 324, 324,
7607, 311, 326, 325, 324,
7609, 311, 325, 325, 323,
7612, 311, 326, 325, 325,
7614, 310, 326, 325, 325,
7616, 310, 326, 326, 324,
7619, 311, 326, 326, 324,
7621, 310, 326, 326, 323,
7623, 311, 326, 327, 325,
7626, 311, 326, 326, 324,
7628, 311, 326, 326, 324,
7630, 312, 326, 327, 324,
7633, 311, 327, 327, 323,
7635, 311, 326, 327, 325,
7638, 311, 326, 327, 324,
7641, 311, 326, 327, 325,
7643, 311, 326, 328, 324,
7645, 312, 326, 327, 324,
7648, 312, 326, 328, 324,
7650, 311, 325, 328, 324,
7652, 311, 325, 329, 324,
7655, 311, 326, 329, 324,
7657, 312, 327, 329, 326,
7659, 312, 325, 328, 324,
7662, 311, 326, 329, 324,
7664, 311, 326, 329, 323,
7666, 311, 326, 330, 323,
7668, 312, 327, 330, 324,
7671, 312, 325, 330, 324,
7673, 312, 325, 330, 324,
7675, 312, 326, 330, 325,
7678, 312, 325, 330, 325,
7681, 312, 325, 329, 324,
7683, 311, 326, 331, 324,
7686, 314, 325, 331, 324,
7688, 313, 325, 331, 325,
7690, 313, 325, 331, 326,
7693, 312, 325, 332, 325,
7695, 313, 326, 332, 324,
7697, 313, 324, 333, 324,
7700, 312, 325, 332, 324,
7702, 312, 324, 332, 325,
7704, 313, 323, 333, 325,
7707, 312, 324, 333, 324,
7709, 313, 324, 333, 324,
7711, 313, 324, 332, 325,
7714, 312, 325, 333, 325,
7716, 313, 324, 334, 325,
7718, 313, 325, 333, 324,
7721, 314, 325, 333, 325,
7724, 313, 325, 333, 325,
7726, 313, 325, 334, 324,
7729, 313, 325, 335, 324,
7731, 315, 324, 334, 325,
7733, 313, 325, 334, 326,
7736, 313, 324, 334, 325,
7738, 313, 324, 335, 328,
7740, 313, 326, 335, 324,
7743, 314, 325, 335, 325,
7745, 313, 325, 335, 325,
7747, 313, 325, 336, 325,
7750, 313, 325, 336, 324,
7752, 313, 325, 336, 324,
7754, 314, 324, 340, 325,
7756, 314, 324, 336, 325,
7759, 314, 325, 336, 325,
7761, 314, 325, 337, 324,
7763, 314, 325, 337, 325,
7767, 314, 324, 338, 326,
7769, 314, 324, 338, 325,
7771, 314, 324, 338, 325,
7774, 314, 323, 339, 324,
7776, 314, 324, 338, 323,
7778, 314, 324, 339, 325,
7781, 314, 324, 339, 325,
7783, 314, 324, 339, 325,
7785, 314, 324, 339, 324,
7788, 316, 324, 339, 325,
7790, 314, 323, 340, 324,
7792, 314, 323, 341, 324,
7795, 314, 321, 342, 323,
7797, 314, 321, 341, 324,
7799, 314, 322, 342, 323,
7802, 314, 323, 342, 323,
7804, 314, 323, 343, 323,
7806, 314, 324, 343, 323,
7810, 314, 325, 344, 324,
7812, 314, 324, 344, 324,
7814, 314, 324, 344, 324,
7817, 314, 325, 345, 324,
7819, 314, 326, 345, 324,
7821, 314, 324, 345, 325,
7824, 314, 325, 346, 324,
7826, 314, 324, 347, 324,
7828, 314, 325, 347, 325,
7831, 314, 325, 347, 325,
7833, 313, 326, 347, 324,
7835, 313, 325, 349, 324,
7838, 313, 324, 349, 323,
7840, 314, 325, 349, 323,
7842, 313, 324, 350, 325,
7844, 313, 324, 350, 323,
7847, 313, 324, 351, 323,
7849, 313, 324, 351, 323,
7852, 313, 323, 352, 324,
7855, 314, 322, 353, 324,
7857, 313, 322, 353, 323,
7859, 313, 322, 355, 323,
7862, 313, 322, 356, 324,
7864, 313, 321, 357, 324,
7866, 313, 322, 357, 324,
7869, 312, 322, 358, 323,
7871, 312, 324, 358, 323,
7873, 313, 323, 358, 324,
7876, 313, 325, 357, 324,
7878, 313, 325, 358, 323,
7880, 312, 326, 358, 323,
7883, 311, 326, 358, 323,
7885, 312, 326, 359, 323,
7887, 312, 326, 360, 324,
7890, 311, 326, 361, 323,
7892, 312, 327, 361, 323,
7895, 312, 326, 361, 323,
7898, 312, 326, 362, 324,
7900, 312, 326, 363, 324,
7902, 312, 326, 364, 323,
7905, 311, 327, 365, 324,
7907, 311, 326, 365, 324,
7909, 312, 325, 365, 324,
7912, 311, 323, 366, 323,
7914, 311, 323, 367, 327,
7916, 311, 324, 368, 323,
7919, 311, 325, 368, 322,
7921, 312, 325, 369, 323,
7923, 312, 324, 369, 323,
7926, 312, 324, 371, 323,
7928, 311, 325, 372, 322,
7930, 312, 324, 376, 323,
7932, 311, 324, 372, 323,
7936, 312, 324, 372, 323,
7938, 311, 325, 371, 323,
7940, 312, 324, 371, 323,
7943, 312, 325, 371, 324,
7945, 312, 325, 372, 323,
7947, 312, 325, 372, 323,
7950, 312, 325, 373, 324,
7952, 311, 325, 373, 324,
7954, 311, 325, 374, 323,
7957, 311, 325, 374, 323,
7959, 310, 325, 374, 325,
7961, 311, 325, 374, 324,
7964, 313, 325, 375, 324,
7966, 311, 324, 376, 324,
7968, 311, 325, 376, 324,
7971, 310, 326, 376, 324,
7973, 311, 325, 376, 325,
7975, 310, 325, 377, 326,
7979, 310, 325, 377, 324,
7981, 310, 325, 376, 324,
7983, 310, 325, 376, 325,
7986, 310, 326, 377, 324,
7988, 310, 325, 377, 325,
7990, 309, 325, 378, 324,
7993, 309, 326, 377, 325,
7995, 309, 325, 377, 326,
7997, 309, 325, 378, 325,
8000, 309, 325, 377, 324,
8002, 308, 325, 378, 324,
8004, 308, 326, 379, 324,
8007, 308, 324, 378, 324,
8009, 308, 324, 378, 324,
8011, 308, 324, 378, 324,
8014, 308, 324, 378, 324,
8016, 308, 324, 379, 324,
8018, 307, 324, 379, 323,
8020, 307, 325, 380, 324,
8024, 307, 324, 379, 324,
8026, 307, 324, 378, 324,
8028, 307, 325, 378, 324,
8031, 306, 325, 378, 324,
8033, 306, 325, 376, 323,
8035, 306, 325, 377, 323,
8038, 307, 324, 377, 323,
8040, 306, 324, 376, 324,
8042, 306, 324, 376, 323,
8045, 305, 325, 376, 323,
8047, 305, 324, 375, 323,
8049, 305, 323, 376, 323,
8052, 305, 324, 375, 323,
8054, 305, 324, 375, 323,
8056, 306, 324, 375, 323,
8059, 306, 323, 374, 324,
8061, 305, 323, 374, 322,
8064, 305, 323, 373, 323,
8067, 303, 322, 374, 322,
8069, 304, 322, 373, 322,
8071, 304, 323, 372, 323,
8074, 305, 324, 372, 322,
8076, 305, 324, 372, 322,
8078, 304, 324, 372, 322,
8081, 304, 323, 371, 321,
8083, 304, 323, 370, 321,
8085, 304, 323, 370, 321,
8088, 304, 324, 370, 321,
8090, 304, 326, 369, 322,
8092, 305, 325, 368, 322,
8095, 304, 324, 368, 321,
8097, 304, 325, 369, 321,
8099, 304, 324, 369, 321,
8102, 304, 325, 368, 321,
8104, 304, 325, 367, 322,
8107, 304, 325, 367, 321,
8109, 304, 325, 366, 320,
8112, 304, 324, 367, 321,
8114, 304, 324, 366, 319,
8116, 304, 324, 366, 321,
8119, 304, 324, 366, 320,
8121, 304, 325, 365, 320,
8123, 305, 328, 365, 321,
8126, 305, 325, 364, 321,
8128, 305, 323, 364, 320,
8130, 305, 323, 364, 320,
8133, 304, 322, 364, 319,
8135, 305, 323, 363, 320,
8137, 305, 324, 363, 319,
8140, 307, 324, 362, 320,
8142, 305, 325, 363, 320,
8144, 305, 323, 362, 319,
8147, 305, 322, 363, 322,
8150, 305, 321, 362, 320,
8152, 304, 322, 363, 320,
8155, 304, 324, 364, 319,
8157, 305, 325, 363, 319,
8159, 305, 325, 363, 320,
8162, 305, 325, 363, 320,
8164, 305, 324, 363, 320,
8166, 304, 324, 362, 319,
8169, 304, 324, 362, 320,
8171, 305, 324, 362, 320,
8173, 304, 324, 363, 319,
8176, 305, 324, 364, 318,
8178, 305, 325, 362, 319,
8180, 305, 324, 363, 319,
8183, 304, 323, 362, 319,
8185, 305, 324, 362, 319,
8187, 305, 324, 363, 318,
8190, 306, 324, 362, 319,
8193, 306, 323, 363, 321,
8195, 306, 322, 364, 319,
8197, 307, 323, 363, 319,
8200, 306, 324, 363, 318,
8202, 306, 323, 363, 319,
8204, 308, 323, 362, 319,
8207, 308, 322, 363, 318,
8209, 308, 321, 363, 319,
8211, 309, 320, 363, 319,
8214, 310, 320, 362, 319,
8216, 310, 320, 361, 318,
8218, 310, 322, 362, 318,
8221, 311, 323, 363, 317,
8223, 312, 322, 362, 318,
8225, 312, 322, 362, 317,
8228, 314, 323, 362, 317,
8230, 314, 323, 362, 317,
8232, 316, 323, 362, 316,
8236, 317, 322, 363, 318,
8238, 318, 323, 363, 317,
8240, 319, 323, 363, 317,
8243, 319, 324, 363, 316,
8245, 321, 323, 363, 318,
8247, 321, 323, 362, 318,
8250, 322, 323, 363, 317,
8252, 323, 323, 363, 317,
8254, 324, 323, 363, 317,
8257, 327, 323, 363, 317,
8259, 327, 323, 363, 317,
8261, 328, 323, 362, 317,
8264, 329, 323, 364, 317,
8266, 329, 322, 363, 318,
8268, 331, 321, 362, 317,
8271, 332, 321, 362, 316,
8273, 334, 322, 362, 316,
8275, 335, 322, 362, 316,
8278, 336, 323, 362, 317,
8281, 337, 323, 362, 317,
8283, 339, 324, 363, 317,
8285, 340, 324, 363, 317,
8288, 342, 324, 362, 317,
8290, 344, 323, 362, 318,
8292, 344, 323, 362, 317,
8295, 346, 323, 363, 316,
8297, 347, 323, 363, 316,
8299, 349, 323, 363, 317,
8302, 350, 323, 362, 317,
8304, 352, 323, 363, 317,
8306, 353, 324, 362, 317,
8309, 354, 325, 362, 317,
8311, 356, 323, 361, 317,
8313, 357, 323, 362, 317,
8316, 360, 323, 362, 317,
8318, 359, 324, 362, 317,
8321, 361, 323, 361, 318,
8324, 362, 323, 363, 318,
8326, 363, 323, 363, 317,
8328, 363, 323, 362, 319,
8331, 365, 324, 361, 317,
8333, 366, 323, 361, 318,
8335, 366, 322, 361, 317,
8338, 368, 322, 359, 317,
8340, 369, 323, 361, 317,
8342, 370, 323, 361, 316,
8345, 370, 323, 362, 317,
8347, 372, 321, 361, 317,
8349, 372, 319, 360, 317,
8352, 374, 319, 361, 317,
8354, 375, 320, 361, 317,
8356, 376, 322, 362, 317,
8359, 377, 323, 362, 316,
8361, 378, 323, 362, 317,
8364, 379, 324, 361, 318,
8366, 379, 323, 361, 317,
8369, 381, 323, 361, 319,
8371, 382, 324, 361, 317,
8373, 383, 324, 361, 316,
8376, 383, 324, 361, 317,
8378, 384, 324, 361, 317,
8380, 385, 323, 361, 317,
8383, 386, 324, 361, 317,
8385, 387, 323, 363, 319,
8387, 388, 323, 360, 318,
8390, 389, 324, 361, 318,
8392, 390, 323, 360, 318,
8394, 391, 323, 360, 317,
8397, 393, 324, 360, 318,
8399, 393, 323, 358, 319,
8401, 393, 324, 359, 318,
8404, 395, 322, 360, 318,
8407, 396, 323, 359, 318,
8409, 397, 322, 359, 320,
8412, 398, 323, 360, 319,
8414, 399, 323, 360, 319,
8416, 399, 323, 360, 318,
8419, 399, 323, 360, 319,
8421, 401, 323, 360, 319,
8423, 402, 323, 359, 319,
8426, 402, 322, 360, 318,
8428, 402, 324, 360, 318,
8430, 403, 323, 359, 319,
8433, 404, 323, 359, 319,
8435, 403, 322, 359, 319,
8437, 404, 322, 359, 319,
8440, 404, 323, 358, 320,
8442, 405, 323, 358, 320,
8444, 404, 323, 357, 320,
8448, 404, 323, 357, 319,
8450, 404, 323, 356, 319,
8452, 404, 322, 357, 319,
8454, 404, 322, 357, 320,
8457, 404, 323, 357, 320,
8459, 403, 323, 356, 319,
8461, 404, 323, 356, 320,
8464, 404, 323, 356, 321,
8466, 403, 322, 355, 320,
8468, 401, 323, 355, 320,
8471, 402, 322, 355, 320,
8473, 402, 323, 354, 321,
8475, 401, 323, 354, 321,
8478, 401, 323, 354, 321,
8480, 400, 323, 354, 321,
8482, 400, 323, 353, 320,
8485, 399, 323, 353, 322,
8487, 399, 322, 353, 321,
8489, 398, 323, 353, 321,
8493, 398, 323, 352, 322,
8495, 397, 324, 353, 321,
8497, 397, 323, 353, 323,
8500, 396, 323, 352, 322,
8502, 395, 322, 352, 322,
8504, 396, 322, 352, 322,
8507, 395, 323, 352, 322,
8509, 394, 323, 352, 323,
8511, 393, 323, 352, 322,
8514, 393, 322, 352, 322,
8516, 393, 324, 351, 323,
8518, 393, 324, 351, 324,
8521, 391, 323, 350, 323,
8523, 392, 323, 351, 323,
8525, 391, 324, 351, 323,
8528, 391, 323, 350, 324,
8530, 391, 324, 350, 324,
8532, 390, 323, 350, 323,
8536, 390, 324, 350, 324,
8538, 389, 324, 350, 324,
8540, 389, 323, 349, 324,
8542, 388, 323, 349, 324,
8545, 388, 323, 349, 326,
8547, 387, 324, 349, 324,
8549, 386, 323, 348, 324,
8552, 386, 322, 348, 325,
8554, 386, 322, 348, 324,
8556, 385, 322, 349, 323,
8559, 384, 323, 348, 324,
8561, 385, 323, 351, 325,
8563, 384, 323, 349, 325,
8566, 384, 324, 348, 325,
8568, 383, 324, 348, 325,
8570, 384, 324, 348, 325,
8573, 384, 324, 348, 326,
8576, 384, 323, 348, 325,
8578, 384, 328, 348, 326,
8581, 384, 325, 348, 325,
8583, 384, 324, 347, 326,
8585, 384, 324, 347, 326,
8588, 384, 324, 348, 326,
8590, 384, 324, 348, 326,
8592, 384, 325, 347, 326,
8595, 387, 325, 347, 326,
8597, 383, 324, 346, 326,
8599, 383, 324, 346, 326,
8602, 382, 325, 347, 326,
8604, 382, 325, 346, 325,
8606, 382, 325, 346, 326,
8609, 381, 325, 346, 326,
8611, 380, 325, 346, 326,
8613, 380, 326, 346, 326,
8616, 380, 325, 345, 327,
8619, 379, 325, 346, 327,
8621, 379, 324, 346, 327,
8624, 378, 325, 346, 327,
8626, 378, 325, 346, 327,
8628, 377, 325, 346, 328,
8630, 376, 325, 346, 326,
8633, 376, 325, 346, 327,
8635, 374, 325, 346, 328,
8637, 375, 325, 346, 328,
8640, 374, 325, 345, 327,
8642, 373, 325, 346, 327,
8644, 373, 325, 346, 327,
8647, 371, 326, 346, 327,
8649, 371, 324, 345, 328,
8651, 370, 325, 345, 328,
8654, 369, 324, 346, 327,
8656, 368, 324, 346, 327,
8658, 368, 324, 346, 328,
8662, 368, 325, 346, 328,
8664, 366, 326, 346, 327,
8666, 365, 326, 346, 327,
8669, 365, 326, 346, 328,
8671, 364, 326, 346, 329,
8673, 363, 325, 346, 328,
8676, 363, 326, 346, 328,
8678, 362, 326, 347, 328,
8680, 361, 326, 346, 329,
8683, 360, 326, 346, 328,
8685, 359, 327, 346, 328,
8687, 358, 326, 347, 328,
8690, 358, 327, 346, 328,
8692, 357, 326, 346, 328,
8694, 357, 326, 346, 328,
8697, 355, 326, 347, 328,
8699, 355, 325, 346, 328,
8701, 353, 326, 347, 329,
8705, 353, 326, 346, 329,
8707, 352, 326, 346, 329,
8709, 352, 326, 347, 328,
8712, 351, 326, 346, 329,
8714, 351, 325, 346, 329,
8716, 350, 325, 346, 329,
8718, 348, 325, 346, 329,
8721, 348, 326, 346, 330,
8723, 347, 325, 346, 328,
8725, 347, 325, 346, 329,
8728, 346, 325, 346, 329,
8730, 345, 325, 345, 329,
8732, 345, 325, 345, 329,
8735, 344, 325, 345, 330,
8737, 343, 325, 346, 329,
8739, 342, 326, 345, 330,
8742, 342, 325, 347, 330,
8744, 341, 326, 345, 330,
8747, 340, 326, 345, 331,
8750, 340, 326, 345, 329,
8752, 339, 326, 346, 330,
8754, 339, 329, 345, 330,
8757, 337, 327, 345, 329,
8759, 338, 326, 345, 330,
8761, 336, 326, 345, 330,
8764, 336, 326, 345, 330,
8766, 335, 326, 344, 330,
8768, 334, 326, 344, 331,
8771, 338, 326, 345, 330,
8773, 334, 326, 345, 330,
8775, 333, 326, 345, 330,
8778, 332, 327, 344, 331,
8780, 332, 326, 344, 331,
8782, 331, 326, 344, 330,
8785, 330, 326, 344, 330,
8787, 330, 327, 344, 330,
8790, 329, 327, 344, 330,
8793, 329, 326, 344, 330,
8795, 329, 326, 344, 330,
8797, 328, 327, 344, 330,
8800, 328, 326, 344, 331,
8802, 327, 326, 342, 331,
8804, 327, 326, 343, 331,
8806, 327, 325, 343, 330,
8809, 326, 326, 343, 331,
8811, 326, 326, 343, 332,
8813, 325, 326, 342, 332,
8816, 324, 325, 343, 331,
8818, 324, 327, 343, 331,
8820, 324, 327, 342, 331,
8823, 323, 326, 342, 333,
8825, 323, 326, 342, 331,
8827, 322, 327, 342, 331,
8830, 321, 327, 342, 331,
8833, 321, 327, 342, 330,
8835, 321, 326, 342, 332,
8838, 320, 326, 342, 331,
8840, 320, 327, 345, 332,
8842, 320, 326, 342, 331,
8845, 320, 326, 342, 331,
8847, 319, 326, 342, 332,
8849, 319, 326, 341, 331,
8852, 318, 325, 342, 331,
8854, 317, 327, 341, 332,
8856, 318, 326, 341, 331,
8859, 317, 326, 341, 331,
8861, 317, 326, 341, 332,
8863, 316, 326, 341, 331,
8866, 316, 326, 341, 332,
8868, 316, 326, 340, 332,
8870, 315, 326, 341, 332,
8873, 315, 326, 341, 331,
8876, 314, 327, 340, 331,
8878, 315, 326, 340, 332,
8881, 314, 326, 340, 332,
8883, 314, 326, 340, 332,
8885, 313, 327, 340, 331,
8887, 313, 326, 340, 332,
8890, 313, 327, 340, 333,
8892, 313, 327, 340, 332,
8894, 312, 327, 340, 332,
8897, 312, 327, 339, 332,
8899, 311, 326, 340, 333,
8901, 311, 326, 340, 332,
8904, 311, 326, 340, 332,
8906, 311, 327, 340, 332,
8908, 311, 327, 339, 331,
8911, 311, 327, 340, 332,
8913, 311, 326, 340, 332,
8915, 311, 327, 339, 332,
8919, 310, 327, 339, 332,
8921, 310, 326, 339, 332,
8923, 309, 326, 338, 332,
8926, 309, 326, 338, 332,
8928, 309, 327, 339, 331,
8930, 309, 327, 339, 331,
8933, 309, 326, 339, 333,
8935, 309, 326, 338, 332,
8937, 308, 326, 339, 331,
8940, 308, 327, 339, 331,
8942, 308, 327, 338, 331,
8944, 308, 326, 340, 331,
8947, 310, 326, 339, 331,
8949, 307, 327, 339, 331,
8951, 307, 327, 339, 331,
8954, 307, 326, 339, 332,
8956, 307, 326, 338, 332,
8958, 307, 324, 338, 332,
8962, 306, 325, 339, 331,
8964, 306, 325, 338, 332,
8966, 306, 326, 338, 332,
8969, 306, 326, 338, 331,
8971, 305, 325, 338, 330,
8973, 305, 325, 338, 331,
8975, 305, 326, 338, 332,
8978, 305, 326, 338, 332,
8980, 305, 326, 338, 332,
8982, 305, 326, 338, 332,
8985, 304, 327, 337, 331,
8987, 304, 325, 339, 332,
8989, 305, 326, 337, 332,
8992, 304, 325, 337, 331,
8994, 304, 326, 337, 331,
8996, 304, 325, 337, 332,
8999, 304, 325, 336, 333,
9001, 303, 326, 337, 331,
9004, 303, 327, 337, 331,
9007, 304, 326, 337, 331,
9009, 304, 326, 337, 332,
9011, 303, 325, 337, 330,
9014, 303, 326, 337, 330,
9016, 303, 325, 340, 331,
9018, 303, 326, 336, 330,
9021, 303, 326, 337, 331,
9023, 303, 325, 336, 331,
9025, 303, 325, 336, 331,
9028, 302, 326, 336, 330,
9030, 303, 325, 336, 332,
9032, 303, 325, 337, 331,
9035, 302, 325, 336, 331,
9037, 302, 324, 336, 331,
9039, 302, 326, 336, 332,
9042, 302, 325, 335, 331,
9044, 302, 325, 336, 331,
9047, 302, 325, 337, 331,
9050, 301, 325, 335, 331,
9052, 301, 326, 335, 332,
9054, 302, 326, 335, 331,
9057, 302, 324, 336, 331,
9059, 302, 326, 335, 330,
9061, 302, 325, 336, 331,
9063, 302, 324, 335, 331,
9066, 302, 325, 335, 331,
9068, 302, 325, 335, 331,
9070, 302, 325, 336, 331,
9073, 302, 325, 335, 331,
9075, 302, 325, 335, 330,
9077, 301, 325, 335, 329,
9080, 301, 324, 336, 329,
9082, 301, 325, 335, 330,
9084, 302, 324, 335, 330,
9088, 302, 324, 335, 331,
9090, 302, 324, 335, 330,
9092, 301, 324, 335, 330,
9095, 302, 325, 335, 332,
9097, 302, 324, 335, 331,
9099, 302, 324, 335, 331,
9102, 302, 325, 336, 330,
9104, 302, 326, 335, 330,
9106, 302, 325, 335, 330,
9109, 302, 325, 335, 331,
9111, 302, 324, 335, 330,
9113, 302, 325, 335, 330,
9116, 302, 325, 335, 331,
9118, 302, 325, 334, 330,
9120, 303, 324, 334, 330,
9123, 303, 325, 335, 330,
9125, 303, 325, 335, 329,
9127, 303, 325, 334, 330,
9131, 303, 325, 334, 330,
9133, 303, 324, 335, 329,
9135, 303, 324, 334, 330,
9138, 304, 325, 334, 330,
9140, 304, 325, 335, 330,
9142, 305, 325, 335, 330,
9145, 305, 325, 335, 328,
9147, 304, 325, 334, 329,
9149, 305, 325, 334, 329,
9151, 304, 325, 334, 329,
9154, 305, 325, 333, 329,
9156, 305, 325, 334, 329,
9158, 306, 325, 333, 329,
9161, 306, 325, 333, 330,
9163, 306, 324, 333, 328,
9165, 306, 325, 333, 328,
9168, 307, 326, 333, 328,
9170, 306, 325, 333, 327,
9172, 307, 325, 333, 329,
9176, 307, 325, 332, 333,
9178, 307, 325, 333, 328,
9180, 308, 325, 333, 328,
9183, 308, 325, 332, 328,
9185, 307, 326, 332, 328,
9187, 307, 325, 332, 328,
9190, 308, 324, 333, 327,
9192, 309, 325, 334, 328,
9194, 308, 325, 332, 329,
9197, 308, 326, 332, 328,
9199, 308, 325, 333, 328,
9201, 309, 325, 332, 327,
9204, 308, 326, 332, 328,
9206, 309, 325, 332, 327,
9208, 309, 329, 332, 326,
9211, 309, 326, 332, 326,
9213, 310, 324, 333, 326,
9216, 310, 325, 332, 328,
9219, 310, 325, 332, 327,
9221, 310, 324, 332, 327,
9223, 310, 325, 333, 327,
9226, 314, 325, 332, 328,
9228, 312, 325, 332, 328,
9230, 312, 325, 332, 327,
9233, 312, 326, 332, 327,
9235, 312, 326, 332, 326,
9237, 313, 325, 332, 327,
9239, 313, 324, 333, 327,
9242, 314, 325, 332, 327,
9244, 314, 325, 332, 327,
9246, 315, 325, 332, 328,
9249, 315, 325, 332, 328,
9251, 316, 324, 332, 328,
9253, 316, 325, 332, 327,
9256, 316, 326, 332, 327,
9259, 317, 326, 332, 328,
9261, 317, 325, 331, 328,
9264, 318, 326, 332, 327,
9266, 318, 326, 335, 327,
9268, 319, 325, 332, 328,
9271, 319, 326, 332, 329,
9273, 320, 326, 332, 327,
9275, 319, 326, 332, 327,
9278, 320, 325, 331, 326,
9280, 320, 326, 331, 326,
9282, 321, 326, 332, 327,
9285, 321, 325, 331, 328,
9287, 322, 326, 332, 327,
9289, 322, 326, 331, 327,
9292, 323, 326, 331, 329,
9294, 323, 325, 331, 328,
9296, 323, 325, 331, 328,
9299, 323, 325, 332, 328,
9302, 324, 326, 331, 329,
9304, 324, 326, 331, 329,
9307, 324, 325, 330, 329,
9309, 325, 325, 331, 328,
9311, 324, 325, 331, 329,
9314, 325, 325, 330, 329,
9316, 325, 325, 331, 329,
9318, 326, 324, 330, 329,
9321, 327, 325, 330, 329,
9323, 327, 326, 330, 329,
9325, 327, 326, 330, 329,
9327, 327, 326, 330, 329,
9330, 328, 325, 330, 329,
9332, 328, 327, 330, 329,
9334, 329, 326, 329, 329,
9337, 330, 327, 328, 329,
9339, 330, 327, 329, 329,
9341, 330, 326, 329, 329,
9345, 331, 327, 329, 329,
9347, 331, 327, 328, 330,
9349, 331, 326, 328, 329,
9352, 331, 327, 327, 333,
9354, 332, 327, 328, 329,
9356, 333, 327, 328, 329,
9359, 333, 327, 327, 330,
9361, 332, 327, 328, 330,
9363, 334, 327, 327, 330,
9366, 333, 328, 327, 330,
9368, 334, 327, 329, 330,
9370, 334, 326, 327, 330,
9373, 335, 327, 326, 331,
9375, 335, 326, 327, 331,
9377, 336, 327, 326, 331,
9380, 336, 327, 326, 330,
9382, 336, 327, 325, 330,
9384, 336, 330, 327, 331,
9388, 336, 327, 326, 331,
9390, 337, 327, 326, 332,
9392, 337, 327, 325, 331,
9395, 337, 327, 325, 331,
9397, 337, 327, 324, 331,
9399, 337, 328, 325, 331,
9402, 339, 326, 324, 331,
9404, 338, 327, 325, 332,
9406, 338, 326, 325, 331,
9409, 338, 327, 325, 332,
9411, 338, 327, 324, 332,
9413, 338, 327, 324, 331,
9415, 337, 327, 324, 330,
9418, 338, 327, 325, 331,
9420, 338, 327, 324, 332,
9422, 338, 327, 324, 333,
9425, 338, 327, 324, 332,
9427, 338, 327, 325, 332,
9430, 338, 327, 324, 333,
9433, 338, 328, 324, 332,
9435, 338, 327, 324, 333,
9437, 338, 327, 324, 333,
9440, 338, 327, 325, 333,
9442, 338, 327, 323, 335,
9444, 338, 327, 323, 334,
9447, 338, 328, 324, 334,
9449, 338, 327, 324, 333,
9451, 338, 327, 324, 333,
9454, 338, 328, 324, 335,
9456, 338, 327, 323, 335,
9458, 338, 327, 324, 334,
9461, 338, 327, 324, 333,
9463, 338, 327, 324, 333,
9465, 338, 327, 324, 334,
9468, 338, 327, 323, 334,
9470, 337, 327, 324, 334,
9473, 337, 328, 324, 334,
9476, 337, 327, 324, 334,
9478, 337, 327, 323, 334,
9480, 337, 327, 324, 334,
9483, 337, 326, 324, 334,
9485, 336, 327, 324, 334,
9487, 337, 327, 324, 334,
9490, 337, 327, 323, 334,
9492, 337, 327, 324, 333,
9494, 336, 327, 324, 333,
9496, 336, 327, 323, 334,
9499, 336, 327, 322, 333,
9501, 336, 326, 322, 333,
9503, 335, 327, 323, 333,
9506, 336, 327, 323, 334,
9508, 336, 327, 323, 333,
9510, 336, 326, 323, 334,
9513, 335, 327, 323, 334,
9516, 335, 327, 322, 335,
9518, 335, 327, 322, 334,
9521, 335, 327, 323, 335,
9523, 335, 326, 322, 335,
9525, 335, 327, 323, 334,
9528, 335, 326, 324, 334,
9530, 334, 326, 322, 335,
9532, 334, 327, 323, 334,
9535, 334, 327, 322, 335,
9537, 334, 327, 323, 334,
9539, 334, 326, 322, 334,
9542, 333, 327, 322, 334,
9544, 333, 326, 323, 334,
9546, 333, 326, 323, 335,
9549, 334, 327, 323, 334,
9551, 332, 327, 322, 334,
9553, 333, 326, 321, 335,
9556, 333, 326, 322, 334,
9559, 332, 326, 322, 334,
9561, 332, 327, 321, 335,
9564, 332, 326, 321, 335,
9566, 332, 326, 321, 335,
9568, 331, 326, 322, 334,
9571, 331, 326, 322, 334,
9573, 331, 327, 321, 334,
9575, 330, 326, 322, 335,
9578, 331, 326, 321, 333,
9580, 330, 326, 321, 333,
9582, 330, 326, 321, 332,
9584, 330, 326, 320, 333,
9587, 329, 326, 320, 333,
9589, 329, 324, 320, 333,
9591, 330, 326, 320, 334,
9594, 328, 327, 320, 334,
9596, 329, 326, 319, 333,
9598, 328, 325, 318, 334,
9602, 328, 325, 319, 334,
9604, 328, 326, 319, 333,
9606, 327, 326, 318, 333,
9609, 327, 326, 318, 334,
9611, 327, 326, 318, 333,
9613, 326, 326, 318, 334,
9616, 326, 326, 317, 333,
9618, 326, 326, 318, 335,
9620, 326, 326, 317, 333,
9623, 326, 327, 317, 333,
9625, 326, 326, 317, 332,
9627, 326, 326, 317, 332,
9630, 325, 326, 316, 335,
9632, 325, 326, 316, 332,
9634, 326, 326, 316, 333,
9637, 325, 326, 316, 333,
9639, 325, 326, 315, 334,
9641, 325, 326, 315, 332,
9645, 324, 326, 315, 331,
9647, 324, 325, 317, 331,
9649, 324, 326, 315, 332,
9652, 324, 325, 314, 333,
9654, 323, 325, 314, 333,
9656, 323, 325, 313, 334,
9659, 323, 326, 313, 332,
9661, 323, 326, 313, 333,
9663, 323, 329, 312, 332,
9666, 323, 326, 312, 332,
9668, 322, 325, 312, 331,
9670, 322, 326, 311, 332,
9672, 322, 325, 311, 332,
9675, 323, 326, 310, 333,
9677, 322, 326, 310, 333,
9679, 325, 325, 309, 333,
9682, 321, 326, 309, 333,
9684, 322, 325, 308, 334,
9687, 321, 325, 308, 332,
9690, 321, 325, 308, 331,
9692, 321, 325, 307, 331,
9694, 321, 325, 306, 327,
9697, 321, 325, 305, 328,
9699, 321, 324, 305, 329,
9701, 321, 324, 305, 329,
9704, 321, 325, 304, 331,
9706, 322, 324, 302, 331,
9708, 321, 325, 303, 330,
9711, 321, 324, 303, 329,
9713, 321, 324, 302, 329,
9715, 321, 325, 301, 331,
9718, 321, 325, 299, 332,
9720, 321, 324, 299, 331,
9722, 321, 325, 298, 331,
9725, 321, 326, 297, 331,
9728, 321, 325, 295, 332,
9730, 321, 325, 294, 331,
9733, 321, 325, 292, 331,
9735, 321, 326, 291, 330,
9737, 321, 326, 290, 332,
9740, 322, 325, 288, 332,
9742, 322, 325, 288, 332,
9744, 322, 324, 286, 331,
9747, 322, 325, 284, 330,
9749, 322, 325, 282, 329,
9751, 322, 325, 281, 329,
9754, 322, 324, 280, 329,
9756, 322, 324, 278, 329,
9758, 322, 325, 276, 331,
9760, 322, 325, 275, 331,
9763, 321, 325, 273, 332,
9765, 321, 325, 272, 331,
9767, 321, 325, 270, 332,
9771, 321, 325, 268, 332,
9773, 321, 324, 267, 332,
9775, 320, 324, 265, 332,
9778, 320, 325, 263, 332,
9780, 319, 325, 261, 331,
9782, 318, 324, 260, 331,
9785, 318, 324, 258, 332,
9787, 317, 325, 256, 332,
9789, 317, 324, 255, 332,
9792, 316, 325, 253, 333,
9794, 315, 324, 253, 332,
9796, 313, 325, 250, 332,
9799, 312, 324, 250, 330,
9801, 311, 325, 247, 328,
9803, 310, 324, 246, 330,
9806, 309, 323, 244, 334,
9808, 307, 323, 243, 331,
9810, 306, 324, 242, 331,
9814, 304, 325, 241, 333,
9816, 303, 323, 240, 333,
9818, 302, 323, 239, 333,
9821, 300, 323, 238, 332,
9823, 298, 324, 242, 332,
9825, 298, 324, 236, 333,
9828, 296, 323, 235, 333,
9830, 294, 322, 234, 333,
9832, 293, 323, 234, 332,
9835, 292, 323, 232, 332,
9837, 291, 323, 230, 334,
9839, 290, 326, 231, 332,
9842, 288, 323, 230, 332,
9844, 288, 323, 229, 332,
9846, 287, 323, 228, 331,
9848, 286, 322, 228, 332,
9851, 285, 323, 228, 332,
9853, 284, 323, 227, 331,
9856, 287, 322, 227, 331,
9859, 284, 323, 226, 332,
9861, 282, 323, 226, 331,
9863, 282, 323, 226, 331,
9866, 281, 322, 226, 331,
9868, 281, 321, 225, 331,
9870, 281, 322, 225, 330,
9873, 280, 323, 224, 330,
9875, 280, 322, 226, 330,
9877, 280, 322, 226, 330,
9880, 279, 322, 226, 330,
9882, 279, 322, 226, 330,
9884, 278, 322, 226, 330,
9887, 278, 322, 227, 329,
9889, 278, 323, 227, 329,
9891, 278, 322, 226, 330,
9894, 278, 321, 226, 329,
9896, 278, 321, 227, 330,
9899, 278, 321, 227, 328,
9902, 278, 321, 227, 329,
9904, 278, 321, 228, 329,
9906, 278, 321, 228, 328,
9909, 278, 321, 230, 327,
9911, 278, 322, 229, 327,
9913, 278, 322, 230, 328,
9916, 278, 321, 230, 328,
9918, 278, 321, 231, 328,
9920, 278, 322, 232, 327,
9923, 279, 321, 232, 327,
9925, 279, 321, 231, 327,
9927, 279, 321, 234, 327,
9930, 279, 321, 234, 326,
9932, 278, 322, 235, 325,
9934, 279, 321, 236, 326,
9936, 279, 320, 236, 326,
9939, 279, 320, 237, 326,
9942, 279, 321, 238, 326,
9944, 280, 321, 239, 326,
9947, 280, 320, 240, 327,
9949, 280, 320, 240, 327,
9951, 280, 321, 241, 326,
9954, 280, 321, 241, 326,
9956, 281, 321, 242, 326,
9958, 281, 321, 243, 326,
9961, 282, 321, 244, 326,
9963, 282, 321, 245, 326,
9965, 283, 321, 246, 325,
9968, 283, 321, 247, 326,
9970, 283, 320, 248, 325,
9972, 283, 321, 249, 325,
9975, 284, 321, 250, 325,
9977, 285, 321, 250, 326,
9979, 284, 321, 251, 325,
9982, 284, 321, 252, 325,
9985, 285, 321, 254, 324,
9987, 285, 321, 253, 324,
9990, 286, 321, 254, 323,
9992, 286, 322, 255, 323,
9994, 287, 321, 256, 323,
9997, 287, 322, 257, 322,
9999, 287, 322, 262, 323,
10001, 288, 321, 259, 323,
10004, 288, 321, 258, 323,
10006, 288, 321, 259, 322,
10008, 289, 322, 261, 322,
10011, 288, 322, 262, 322,
10013, 289, 322, 262, 323,
10016, 289, 322, 263, 322,
10018, 290, 322, 264, 322,
10020, 290, 323, 265, 322,
10023, 290, 324, 266, 322,
10025, 291, 323, 266, 322,
10029, 291, 323, 268, 322,
10031, 291, 323, 268, 322,
10034, 291, 321, 268, 322,
10036, 293, 323, 269, 322,
10038, 292, 323, 270, 322,
10041, 293, 323, 271, 322,
10043, 293, 323, 271, 322,
10046, 294, 323, 272, 322,
10048, 293, 324, 273, 322,
10050, 294, 323, 274, 322,
10053, 295, 323, 274, 321,
10055, 295, 324, 275, 321,
10058, 295, 324, 276, 321,
10060, 296, 323, 277, 320,
10062, 296, 323, 278, 320,
10065, 296, 323, 278, 320,
10067, 295, 324, 278, 320,
10071, 296, 324, 279, 320,
10073, 297, 322, 281, 321,
10075, 297, 324, 281, 321,
10078, 298, 324, 281, 322,
10080, 297, 324, 283, 320,
10083, 298, 324, 283, 321,
10085, 299, 323, 284, 321,
10087, 299, 325, 285, 321,
10090, 299, 325, 285, 321,
10092, 300, 325, 286, 321,
10095, 299, 325, 286, 321,
10097, 299, 328, 287, 321,
10100, 300, 324, 287, 320,
10102, 300, 325, 288, 321,
10104, 300, 326, 289, 320,
10107, 301, 325, 289, 321,
10109, 302, 325, 289, 321,
10113, 302, 325, 291, 321,
10115, 302, 325, 290, 321,
10117, 302, 325, 291, 321,
10120, 303, 325, 292, 320,
10122, 303, 325, 293, 321,
10125, 303, 325, 294, 321,
10127, 303, 325, 294, 321,
10129, 303, 325, 294, 321,
10132, 304, 325, 295, 320,
10134, 303, 325, 295, 321,
10137, 304, 325, 296, 320,
10139, 303, 325, 296, 320,
10141, 304, 326, 296, 320,
10144, 305, 325, 297, 320,
10146, 304, 325, 298, 320,
10149, 305, 326, 298, 321,
10151, 305, 325, 299, 320,
10153, 306, 326, 300, 320,
10157, 306, 325, 300, 320,
10159, 305, 325, 301, 320,
10162, 306, 325, 301, 321,
10164, 306, 325, 301, 321,
10167, 306, 326, 300, 319,
10169, 307, 326, 302, 321,
10171, 307, 326, 302, 321,
10174, 307, 325, 302, 321,
10176, 308, 326, 303, 321,
10179, 308, 326, 303, 324,
10181, 307, 326, 304, 320,
10183, 310, 326, 304, 321,
10186, 308, 326, 304, 321,
10188, 309, 325, 305, 320,
10191, 309, 326, 306, 321,
10193, 309, 327, 305, 321,
10195, 309, 326, 306, 321,
10199, 308, 326, 307, 321,
10201, 309, 325, 306, 320,
10204, 308, 326, 306, 321,
10206, 310, 326, 307, 321,
10208, 310, 326, 307, 320,
10211, 311, 326, 308, 321,
10213, 310, 326, 308, 321,
10216, 310, 326, 308, 321,
10218, 310, 326, 308, 321,
10220, 310, 326, 309, 322,
10223, 310, 326, 308, 321,
10225, 311, 327, 308, 321,
10228, 311, 326, 309, 321,
10230, 311, 326, 309, 321,
10233, 311, 327, 310, 321,
10235, 312, 326, 310, 321,
10237, 312, 326, 311, 321,
10241, 312, 326, 310, 321,
10243, 312, 326, 310, 321,
10246, 312, 328, 310, 321,
10248, 312, 326, 311, 321,
10250, 312, 326, 311, 321,
10253, 313, 326, 311, 321,
10255, 313, 326, 312, 321,
10258, 313, 326, 312, 322,
10260, 313, 326, 312, 321,
10262, 313, 327, 312, 321,
10265, 313, 326, 315, 321,
10267, 313, 326, 312, 321,
10270, 314, 326, 312, 322,
10272, 314, 325, 313, 321,
10274, 314, 326, 313, 321,
10277, 314, 327, 315, 322,
10279, 314, 326, 313, 321,
10283, 314, 326, 313, 321,
10285, 314, 326, 313, 321,
10287, 314, 326, 314, 321,
10290, 314, 326, 314, 321,
10292, 314, 327, 314, 322,
10295, 314, 326, 315, 321,
10297, 315, 326, 314, 322,
10300, 315, 326, 314, 321,
10302, 315, 326, 315, 321,
10304, 315, 327, 315, 322,
10307, 315, 326, 315, 321,
10309, 315, 326, 314, 321,
10312, 315, 326, 315, 321,
10314, 314, 326, 314, 321,
10316, 315, 326, 315, 322,
10319, 315, 326, 315, 321,
10321, 315, 326, 315, 322,
10324, 316, 326, 316, 321,
10327, 316, 326, 315, 321,
10329, 316, 326, 315, 322,
10332, 316, 325, 316, 321,
10334, 316, 326, 316, 321,
10337, 316, 325, 316, 322,
10339, 317, 325, 316, 322,
10341, 316, 326, 318, 322,
10344, 316, 325, 317, 322,
10346, 317, 325, 317, 322,
10349, 316, 325, 317, 322,
10351, 316, 325, 317, 322,
10353, 316, 325, 318, 322,
10356, 316, 325, 317, 322,
10358, 316, 325, 318, 322,
10361, 316, 325, 318, 323,
10363, 317, 326, 317, 322,
10366, 316, 325, 317, 322,
10369, 316, 325, 318, 322,
10371, 316, 326, 318, 323,
10374, 316, 325, 318, 322,
10376, 317, 325, 319, 323,
10379, 317, 325, 319, 322,
10381, 317, 325, 319, 323,
10383, 316, 323, 318, 322,
10386, 316, 324, 320, 322,
10388, 317, 325, 319, 323,
10391, 317, 325, 320, 322,
10393, 316, 325, 319, 322,
10395, 317, 325, 319, 323,
10398, 316, 325, 319, 322,
10400, 317, 325, 320, 322,
10403, 317, 324, 320, 322,
10405, 316, 324, 320, 322,
10407, 317, 325, 320, 322,
10411, 317, 324, 321, 322,
10413, 317, 325, 321, 322,
10416, 317, 324, 321, 322,
10418, 316, 325, 320, 322,
10420, 317, 324, 321, 322,
10423, 317, 324, 320, 322,
10425, 316, 323, 320, 322,
10428, 317, 323, 321, 322,
10430, 318, 324, 322, 322,
10432, 317, 324, 322, 326,
10435, 317, 324, 321, 322,
10437, 317, 324, 322, 322,
10440, 318, 324, 322, 321,
10442, 317, 325, 322, 322,
10445, 318, 324, 322, 323,
10447, 318, 323, 322, 322,
10449, 321, 324, 322, 322,
10452, 318, 325, 322, 323,
10455, 318, 324, 322, 322,
10458, 318, 325, 322, 326,
10460, 319, 324, 322, 321,
10462, 318, 325, 322, 322,
10465, 318, 325, 322, 323,
10467, 318, 325, 323, 322,
10470, 318, 325, 322, 322,
10472, 318, 325, 322, 323,
10474, 319, 325, 322, 323,
10477, 319, 325, 323, 322,
10479, 319, 324, 323, 322,
10482, 318, 325, 322, 322,
10484, 318, 325, 323, 322,
10486, 319, 324, 323, 322,
10489, 318, 325, 323, 322,
10491, 319, 324, 323, 323,
10494, 319, 324, 324, 324,
10497, 319, 325, 323, 323,
10499, 319, 326, 323, 322,
10502, 319, 325, 323, 323,
10504, 319, 325, 324, 323,
10507, 319, 324, 323, 323,
10509, 319, 325, 323, 323,
10512, 319, 325, 324, 323,
10514, 320, 324, 325, 323,
10516, 319, 325, 325, 323,
10519, 320, 324, 326, 322,
10521, 319, 325, 324, 322,
10524, 320, 324, 325, 323,
10526, 320, 323, 325, 322,
10528, 320, 324, 326, 322,
10531, 320, 323, 329, 321,
10533, 320, 324, 326, 322,
10536, 319, 323, 326, 322,
10539, 320, 323, 326, 322,
10541, 320, 323, 327, 322,
10544, 320, 323, 328, 322,
10546, 320, 322, 327, 322,
10549, 320, 323, 326, 322,
10551, 320, 323, 327, 322,
10553, 320, 324, 328, 322,
10556, 320, 324, 328, 322,
10558, 320, 323, 329, 322,
10561, 320, 324, 329, 323,
10563, 320, 324, 329, 323,
10565, 320, 323, 329, 322,
10568, 319, 324, 329, 322,
10570, 320, 324, 329, 323,
10573, 319, 324, 329, 323,
10575, 320, 324, 330, 323,
10578, 320, 324, 330, 323,
10580, 320, 325, 330, 323,
10583, 320, 324, 331, 323,
10586, 320, 323, 332, 323,
10588, 320, 322, 331, 323,
10591, 320, 321, 332, 323,
10593, 320, 321, 332, 322,
10595, 320, 324, 332, 323,
10598, 321, 323, 333, 323,
10600, 320, 325, 333, 323,
10603, 321, 323, 334, 322,
10605, 321, 324, 335, 323,
10607, 320, 324, 336, 323,
10610, 321, 324, 337, 323,
10612, 320, 325, 337, 323,
10615, 320, 324, 338, 323,
10617, 319, 327, 341, 323,
10619, 320, 325, 339, 323,
10622, 321, 325, 340, 323,
10625, 321, 325, 342, 323,
10628, 321, 325, 341, 324,
10630, 321, 325, 341, 323,
10632, 321, 324, 343, 323,
10635, 321, 324, 343, 323,
10637, 321, 324, 343, 323,
10640, 321, 324, 344, 323,
10642, 321, 324, 345, 322,
10645, 320, 324, 345, 323,
10647, 320, 324, 347, 323,
10649, 320, 322, 349, 323,
10652, 320, 323, 349, 323,
10654, 321, 323, 351, 322,
10657, 320, 324, 351, 322,
10659, 320, 324, 351, 322,
10661, 321, 324, 351, 322,
10664, 320, 324, 351, 322,
10667, 321, 325, 352, 322,
10670, 321, 325, 353, 322,
10672, 321, 325, 353, 323,
10674, 321, 326, 354, 322,
10677, 320, 325, 355, 322,
10679, 321, 325, 356, 323,
10682, 321, 325, 357, 322,
10684, 320, 325, 357, 322,
10686, 320, 325, 358, 325,
10689, 321, 325, 360, 322,
10691, 320, 325, 360, 323,
10694, 321, 325, 361, 322,
10696, 320, 325, 361, 322,
10698, 321, 325, 362, 325,
10701, 321, 324, 363, 322,
10703, 319, 325, 364, 323,
10706, 321, 323, 367, 322,
10708, 321, 323, 369, 322,
10712, 320, 323, 369, 322,
10714, 321, 323, 371, 322,
10716, 321, 323, 372, 322,
10719, 321, 324, 370, 322,
10721, 320, 324, 370, 322,
10724, 320, 323, 370, 322,
10726, 321, 322, 371, 322,
10728, 321, 322, 370, 322,
10731, 321, 323, 371, 323,
10733, 321, 323, 372, 322,
10736, 320, 324, 371, 322,
10738, 321, 324, 372, 322,
10740, 320, 324, 373, 322,
10743, 320, 324, 374, 323,
10745, 320, 324, 375, 322,
10748, 319, 324, 375, 322,
10750, 320, 323, 376, 322,
10753, 320, 325, 376, 322,
10756, 319, 324, 377, 323,
10758, 320, 324, 378, 322,
10761, 320, 324, 378, 322,
10763, 319, 324, 379, 322,
10765, 319, 324, 379, 323,
10768, 319, 324, 379, 322,
10770, 319, 324, 379, 323,
10773, 320, 324, 379, 323,
10775, 319, 323, 380, 323,
10778, 317, 323, 381, 322,
10780, 319, 323, 381, 322,
10782, 318, 323, 380, 323,
10785, 318, 323, 381, 322,
10787, 318, 323, 380, 323,
10790, 318, 323, 380, 323,
10792, 317, 323, 382, 322,
10795, 318, 323, 382, 323,
10798, 318, 322, 383, 322,
10800, 317, 322, 383, 322,
10803, 317, 322, 382, 323,
10805, 317, 323, 382, 322,
10807, 317, 323, 382, 322,
10810, 317, 323, 380, 323,
10812, 316, 323, 378, 323,
10815, 316, 323, 379, 323,
10817, 316, 323, 379, 322,
10819, 315, 324, 379, 322,
10822, 315, 324, 379, 322,
10824, 316, 323, 379, 322,
10827, 315, 324, 379, 323,
10829, 315, 323, 379, 322,
10831, 315, 323, 379, 322,
10834, 314, 323, 378, 322,
10836, 315, 323, 379, 322,
10840, 314, 323, 380, 322,
10842, 314, 322, 379, 322,
10845, 314, 323, 378, 322,
10847, 314, 324, 377, 322,
10849, 314, 324, 376, 322,
10852, 313, 324, 375, 322,
10854, 314, 323, 375, 321,
10857, 314, 323, 375, 321,
10859, 313, 321, 375, 321,
10861, 314, 320, 374, 321,
10864, 313, 321, 374, 321,
10866, 313, 323, 373, 321,
10869, 314, 323, 373, 320,
10871, 313, 327, 372, 321,
10873, 313, 325, 372, 321,
10876, 313, 325, 371, 321,
10878, 313, 324, 371, 321,
10882, 313, 323, 371, 320,
10884, 313, 323, 372, 320,
10886, 313, 323, 371, 320,
10889, 314, 324, 372, 320,
10891, 313, 325, 371, 320,
10894, 314, 324, 371, 320,
10896, 314, 325, 371, 320,
10898, 314, 324, 370, 320,
10901, 314, 324, 369, 320,
10903, 314, 324, 369, 320,
10906, 314, 324, 369, 321,
10908, 315, 324, 370, 320,
10910, 314, 324, 371, 320,
10913, 315, 324, 371, 319,
10915, 315, 325, 370, 319,
10918, 315, 325, 369, 320,
10920, 316, 325, 369, 319,
10924, 316, 324, 369, 319,
10926, 316, 323, 368, 319,
10928, 317, 321, 368, 318,
10931, 317, 322, 367, 320,
10933, 318, 324, 368, 319,
10936, 317, 324, 368, 319,
10938, 318, 325, 369, 320,
10940, 319, 325, 368, 319,
10943, 319, 325, 367, 320,
10945, 320, 325, 368, 319,
10948, 321, 325, 368, 319,
10950, 322, 325, 368, 320,
10952, 323, 324, 368, 316,
10955, 324, 325, 368, 320,
10957, 324, 325, 367, 320,
10960, 326, 325, 367, 319,
10962, 326, 325, 365, 320,
10964, 327, 325, 365, 320,
10968, 327, 324, 365, 320,
10970, 328, 323, 367, 319,
10973, 330, 323, 366, 320,
10975, 331, 324, 367, 320,
