starting
0, 328, 328, 328, 328,
1, 328, 328, 328, 328,
2, 328, 329, 328, 328,
4, 329, 329, 329, 330,
5, 329, 330, 329, 329,
7, 329, 329, 329, 329,
8, 329, 329, 329, 329,
10, 329, 330, 329, 329,
12, 329, 329, 329, 329,
14, 329, 330, 329, 329,
16, 329, 330, 328, 330,
19, 329, 329, 328, 328,
21, 329, 329, 329, 329,
23, 329, 330, 327, 330,
25, 329, 329, 329, 329,
27, 328, 329, 329, 329,
29, 329, 330, 329, 330,
32, 327, 330, 329, 329,
34, 329, 329, 329, 329,
36, 329, 330, 329, 329,
38, 329, 330, 329, 330,
40, 329, 329, 329, 329,
43, 329, 329, 328, 329,
46, 329, 329, 329, 329,
48, 328, 329, 329, 327,
50, 329, 330, 329, 330,
52, 329, 329, 331, 329,
54, 328, 330, 329, 329,
56, 329, 333, 329, 329,
58, 329, 330, 328, 329,
61, 333, 329, 328, 329,
63, 329, 329, 329, 329,
65, 329, 330, 329, 329,
67, 329, 329, 329, 330,
69, 329, 329, 329, 329,
71, 329, 330, 329, 329,
74, 329, 329, 329, 329,
76, 329, 330, 329, 330,
78, 329, 329, 329, 329,
80, 328, 331, 330, 329,
82, 329, 329, 329, 329,
84, 329, 330, 329, 330,
88, 329, 329, 329, 329,
90, 331, 329, 329, 329,
92, 329, 330, 330, 330,
94, 329, 329, 330, 330,
96, 328, 330, 329, 329,
98, 329, 329, 329, 330,
100, 328, 329, 330, 329,
103, 328, 330, 329, 329,
105, 329, 330, 331, 329,
107, 330, 329, 330, 329,
109, 329, 329, 329, 330,
112, 329, 330, 329, 329,
114, 328, 330, 328, 329,
116, 329, 330, 329, 330,
118, 329, 329, 329, 330,
121, 329, 329, 329, 329,
123, 329, 329, 329, 328,
125, 329, 329, 329, 329,
128, 329, 329, 330, 329,
131, 329, 329, 330, 329,
133, 329, 329, 330, 329,
135, 329, 328, 328, 329,
137, 328, 329, 330, 330,
140, 328, 329, 330, 329,
142, 329, 329, 329, 329,
144, 329, 329, 330, 330,
146, 329, 330, 329, 329,
149, 329, 329, 330, 329,
151, 329, 329, 329, 329,
153, 329, 329, 330, 330,
155, 329, 329, 330, 329,
158, 329, 329, 329, 329,
160, 329, 329, 330, 328,
162, 329, 329, 332, 329,
164, 329, 329, 330, 329,
166, 329, 329, 330, 329,
169, 328, 329, 330, 329,
172, 329, 329, 330, 329,
174, 328, 329, 330, 329,
176, 328, 329, 330, 329,
179, 329, 329, 330, 333,
181, 329, 328, 330, 329,
183, 329, 328, 330, 329,
185, 329, 329, 330, 329,
188, 329, 329, 329, 328,
190, 329, 329, 330, 329,
192, 329, 329, 330, 330,
194, 329, 328, 329, 329,
197, 328, 329, 330, 329,
199, 329, 329, 329, 329,
201, 329, 329, 330, 329,
203, 329, 329, 329, 328,
206, 329, 329, 330, 329,
208, 329, 329, 330, 329,
210, 329, 329, 329, 329,
212, 328, 330, 330, 330,
216, 328, 329, 330, 329,
218, 329, 329, 330, 329,
220, 329, 329, 330, 330,
222, 328, 329, 330, 330,
225, 328, 329, 329, 328,
227, 328, 330, 329, 329,
229, 328, 329, 329, 329,
231, 328, 329, 329, 329,
233, 329, 329, 329, 329,
236, 328, 329, 330, 330,
238, 328, 329, 329, 329,
240, 328, 329, 329, 329,
242, 328, 329, 329, 329,
245, 328, 329, 329, 329,
247, 329, 329, 330, 329,
249, 328, 329, 329, 329,
251, 328, 330, 330, 329,
254, 328, 329, 329, 329,
257, 329, 329, 329, 329,
259, 329, 329, 329, 329,
261, 329, 329, 329, 329,
264, 328, 330, 330, 329,
266, 329, 330, 329, 329,
268, 329, 329, 329, 329,
270, 328, 329, 329, 329,
273, 328, 329, 329, 328,
275, 328, 329, 327, 329,
277, 328, 330, 329, 329,
279, 328, 328, 329, 329,
282, 331, 330, 329, 329,
284, 329, 329, 330, 329,
286, 328, 329, 329, 329,
288, 329, 329, 329, 329,
291, 329, 329, 330, 329,
293, 329, 328, 330, 329,
295, 329, 329, 330, 330,
297, 328, 329, 330, 330,
300, 329, 328, 330, 328,
303, 329, 329, 331, 329,
305, 329, 329, 330, 330,
307, 329, 329, 330, 329,
309, 329, 329, 330, 330,
312, 329, 329, 330, 329,
314, 329, 330, 329, 329,
316, 328, 329, 330, 330,
318, 329, 330, 330, 329,
321, 329, 329, 330, 330,
323, 328, 330, 328, 329,
325, 328, 329, 329, 329,
327, 328, 330, 329, 329,
330, 328, 329, 329, 328,
332, 328, 329, 329, 329,
334, 328, 329, 329, 330,
336, 328, 330, 329, 329,
339, 330, 327, 329, 330,
342, 328, 330, 329, 330,
344, 328, 330, 329, 330,
346, 327, 329, 329, 330,
349, 328, 329, 329, 330,
351, 328, 330, 329, 330,
353, 328, 330, 329, 330,
355, 328, 333, 329, 330,
357, 328, 330, 329, 330,
360, 328, 330, 329, 329,
362, 328, 329, 329, 330,
364, 328, 330, 329, 330,
366, 328, 329, 329, 330,
369, 328, 330, 329, 330,
371, 328, 330, 332, 329,
373, 327, 329, 329, 330,
375, 327, 329, 330, 330,
378, 328, 330, 329, 330,
380, 327, 330, 329, 330,
382, 328, 330, 329, 330,
385, 327, 329, 329, 330,
388, 327, 330, 329, 328,
390, 328, 330, 329, 330,
392, 328, 329, 329, 330,
394, 328, 329, 329, 330,
397, 328, 329, 330, 330,
399, 328, 329, 328, 329,
401, 328, 330, 330, 330,
403, 328, 329, 330, 330,
406, 328, 329, 329, 330,
408, 329, 329, 330, 329,
410, 328, 329, 329, 330,
412, 327, 330, 330, 330,
415, 327, 330, 329, 330,
417, 328, 330, 330, 330,
419, 329, 329, 330, 330,
421, 327, 329, 329, 330,
423, 328, 329, 330, 330,
427, 327, 330, 330, 329,
429, 328, 329, 331, 329,
431, 328, 329, 330, 330,
433, 326, 329, 330, 330,
436, 327, 329, 330, 330,
438, 328, 330, 330, 330,
440, 327, 329, 331, 330,
442, 327, 329, 330, 330,
445, 327, 329, 330, 333,
447, 328, 329, 330, 330,
449, 327, 328, 331, 329,
451, 327, 329, 330, 330,
454, 327, 329, 330, 329,
456, 328, 329, 330, 329,
458, 328, 329, 330, 329,
460, 327, 329, 330, 329,
463, 328, 329, 330, 329,
465, 327, 328, 330, 329,
467, 327, 329, 330, 329,
470, 327, 329, 330, 329,
473, 327, 329, 330, 329,
475, 327, 328, 330, 329,
477, 327, 329, 330, 329,
479, 327, 328, 330, 329,
482, 327, 328, 330, 329,
484, 327, 329, 330, 329,
486, 326, 329, 330, 329,
488, 326, 329, 331, 329,
490, 326, 329, 330, 329,
493, 328, 329, 330, 329,
495, 328, 328, 330, 329,
497, 326, 329, 330, 329,
499, 327, 329, 330, 329,
502, 327, 329, 330, 329,
504, 327, 328, 330, 329,
506, 327, 329, 330, 329,
508, 327, 329, 331, 330,
512, 327, 329, 330, 330,
514, 327, 329, 330, 329,
516, 326, 328, 330, 330,
518, 327, 329, 330, 329,
521, 327, 328, 330, 330,
523, 327, 328, 328, 329,
525, 326, 328, 330, 329,
527, 327, 328, 330, 330,
530, 327, 327, 329, 330,
532, 327, 328, 330, 330,
534, 326, 328, 330, 329,
536, 327, 328, 330, 330,
539, 327, 329, 329, 329,
541, 327, 328, 331, 329,
543, 327, 329, 330, 330,
545, 326, 328, 330, 330,
548, 329, 328, 330, 330,
550, 327, 328, 330, 330,
552, 328, 328, 330, 330,
555, 328, 327, 330, 330,
557, 327, 327, 331, 330,
560, 328, 328, 330, 330,
562, 327, 328, 331, 331,
564, 328, 332, 332, 329,
566, 328, 328, 331, 330,
569, 328, 328, 331, 330,
571, 328, 328, 331, 330,
573, 328, 328, 331, 330,
575, 328, 328, 331, 329,
578, 328, 329, 330, 329,
580, 328, 328, 334, 330,
582, 327, 329, 331, 330,
584, 328, 328, 331, 329,
587, 327, 329, 330, 329,
589, 327, 329, 330, 329,
591, 327, 328, 330, 330,
593, 328, 328, 331, 330,
596, 328, 329, 331, 329,
599, 327, 329, 330, 329,
601, 328, 328, 331, 329,
603, 328, 329, 331, 330,
606, 331, 329, 331, 330,
608, 329, 329, 331, 329,
610, 329, 329, 330, 329,
612, 327, 329, 331, 329,
615, 328, 329, 330, 330,
617, 328, 329, 330, 329,
619, 329, 328, 331, 329,
621, 328, 331, 331, 330,
623, 328, 329, 330, 329,
626, 328, 329, 331, 329,
628, 328, 328, 330, 329,
630, 328, 329, 330, 329,
632, 329, 329, 330, 329,
635, 328, 329, 331, 330,
637, 328, 329, 335, 329,
640, 329, 330, 331, 330,
642, 328, 330, 331, 330,
645, 329, 329, 331, 330,
647, 328, 329, 330, 330,
649, 328, 329, 330, 330,
651, 328, 330, 330, 330,
654, 328, 330, 330, 329,
656, 329, 329, 330, 330,
658, 327, 330, 330, 331,
660, 329, 330, 330, 330,
663, 329, 330, 329, 331,
665, 329, 330, 330, 330,
667, 329, 330, 330, 331,
669, 329, 330, 330, 331,
672, 329, 329, 330, 330,
674, 329, 330, 330, 330,
676, 329, 330, 330, 330,
678, 329, 330, 330, 330,
681, 329, 329, 331, 330,
684, 329, 330, 330, 330,
686, 328, 330, 330, 331,
688, 329, 330, 330, 330,
690, 329, 330, 330, 330,
693, 329, 330, 329, 331,
695, 329, 329, 330, 331,
697, 328, 330, 329, 330,
699, 328, 330, 330, 330,
702, 329, 329, 329, 330,
704, 329, 330, 329, 330,
706, 329, 330, 330, 330,
708, 329, 330, 329, 331,
711, 329, 330, 329, 333,
713, 329, 330, 329, 331,
715, 329, 329, 329, 331,
717, 329, 330, 329, 330,
720, 329, 330, 329, 331,
722, 329, 330, 329, 330,
724, 329, 329, 329, 330,
727, 329, 330, 329, 330,
730, 329, 330, 329, 330,
732, 330, 329, 328, 331,
734, 329, 329, 329, 331,
736, 329, 330, 329, 331,
739, 328, 330, 329, 330,
741, 330, 330, 329, 331,
743, 330, 330, 329, 331,
745, 329, 330, 329, 331,
748, 329, 330, 329, 330,
750, 329, 329, 328, 330,
752, 329, 330, 329, 331,
754, 329, 329, 329, 330,
756, 329, 330, 329, 331,
759, 330, 330, 329, 331,
761, 330, 329, 329, 331,
763, 329, 329, 329, 330,
765, 329, 330, 329, 330,
769, 330, 329, 329, 330,
771, 329, 329, 329, 330,
773, 329, 329, 329, 330,
775, 329, 329, 329, 330,
778, 329, 330, 330, 330,
780, 329, 329, 329, 330,
782, 330, 329, 329, 331,
784, 329, 329, 329, 330,
787, 329, 329, 329, 330,
789, 330, 329, 327, 331,
791, 330, 329, 329, 330,
793, 329, 329, 329, 330,
796, 330, 329, 329, 330,
798, 330, 329, 329, 330,
800, 329, 329, 329, 330,
802, 330, 330, 329, 330,
805, 330, 329, 329, 329,
807, 330, 329, 329, 330,
809, 329, 329, 330, 330,
812, 329, 329, 329, 329,
814, 329, 329, 329, 330,
817, 329, 328, 329, 330,
819, 330, 329, 329, 330,
821, 329, 329, 329, 330,
823, 329, 329, 329, 330,
826, 329, 329, 328, 330,
828, 330, 328, 329, 330,
830, 330, 334, 328, 329,
832, 329, 329, 329, 330,
835, 329, 329, 329, 330,
837, 329, 330, 329, 330,
839, 330, 329, 329, 330,
841, 330, 329, 329, 329,
844, 330, 328, 330, 329,
846, 329, 329, 329, 330,
848, 329, 329, 328, 330,
850, 329, 329, 329, 330,
854, 329, 329, 328, 330,
856, 330, 330, 329, 330,
858, 329, 329, 329, 329,
860, 330, 329, 329, 330,
863, 329, 329, 329, 329,
865, 329, 329, 329, 330,
867, 330, 330, 329, 330,
869, 329, 329, 329, 330,
872, 330, 329, 329, 330,
874, 329, 329, 329, 330,
876, 329, 329, 329, 330,
878, 330, 330, 329, 330,
880, 330, 329, 329, 330,
883, 330, 329, 329, 330,
885, 329, 329, 329, 331,
887, 329, 330, 329, 330,
889, 329, 330, 328, 330,
892, 329, 330, 329, 330,
894, 329, 329, 329, 330,
897, 329, 329, 329, 330,
899, 329, 329, 328, 330,
902, 330, 330, 328, 330,
904, 330, 329, 333, 330,
906, 330, 329, 330, 329,
908, 330, 329, 329, 330,
911, 329, 329, 329, 331,
913, 330, 329, 329, 330,
915, 329, 330, 329, 331,
917, 329, 329, 330, 330,
920, 330, 330, 330, 334,
922, 329, 330, 329, 330,
924, 329, 330, 330, 330,
926, 330, 330, 329, 330,
929, 330, 329, 330, 330,
931, 330, 329, 329, 330,
933, 330, 329, 329, 330,
935, 329, 329, 329, 330,
939, 329, 330, 329, 330,
941, 330, 329, 329, 330,
943, 330, 330, 329, 331,
945, 330, 330, 329, 330,
947, 329, 330, 329, 330,
950, 329, 330, 329, 329,
952, 330, 330, 329, 330,
954, 330, 330, 330, 329,
956, 330, 329, 330, 331,
959, 329, 330, 330, 330,
961, 330, 330, 330, 330,
963, 329, 329, 330, 330,
965, 329, 330, 329, 329,
968, 330, 329, 330, 329,
970, 328, 330, 329, 329,
972, 330, 329, 329, 329,
974, 330, 329, 329, 329,
977, 329, 329, 329, 331,
979, 330, 329, 330, 329,
982, 330, 328, 330, 329,
984, 330, 329, 330, 330,
987, 329, 329, 330, 329,
989, 330, 330, 330, 329,
991, 330, 330, 330, 329,
993, 330, 329, 330, 329,
996, 330, 329, 330, 329,
998, 329, 329, 328, 329,
1000, 330, 329, 330, 328,
1002, 329, 327, 330, 331,
1005, 330, 329, 330, 329,
1007, 330, 329, 330, 329,
1009, 330, 329, 330, 328,
1012, 329, 330, 330, 328,
1014, 330, 329, 331, 329,
1016, 329, 329, 330, 329,
1019, 329, 329, 330, 329,
1021, 329, 329, 329, 329,
1024, 329, 329, 330, 330,
1027, 330, 329, 330, 329,
1029, 329, 329, 330, 329,
1031, 330, 329, 330, 329,
1034, 330, 330, 330, 330,
1036, 330, 329, 329, 331,
1038, 329, 329, 330, 329,
1041, 329, 329, 330, 329,
1043, 329, 330, 334, 330,
1045, 329, 329, 330, 328,
1048, 329, 329, 330, 329,
1050, 330, 329, 330, 329,
1052, 329, 329, 330, 329,
1054, 330, 329, 330, 329,
1057, 330, 329, 329, 330,
1059, 330, 329, 330, 330,
1061, 329, 330, 330, 329,
1064, 330, 329, 330, 329,
1067, 329, 329, 330, 330,
1069, 329, 329, 329, 330,
1072, 330, 329, 330, 329,
1074, 330, 329, 330, 329,
1076, 331, 329, 330, 329,
1079, 329, 329, 330, 328,
1081, 329, 329, 329, 329,
1083, 329, 328, 330, 329,
1086, 329, 329, 330, 328,
1088, 329, 330, 330, 328,
1090, 329, 329, 329, 330,
1093, 330, 329, 330, 329,
1095, 329, 329, 330, 329,
1097, 329, 329, 330, 329,
1100, 330, 330, 329, 330,
1102, 330, 329, 329, 330,
1104, 329, 329, 329, 330,
1107, 329, 329, 330, 329,
1110, 329, 330, 329, 328,
1112, 329, 330, 329, 330,
1115, 329, 329, 329, 330,
1117, 329, 330, 331, 330,
1119, 329, 330, 330, 329,
1122, 330, 330, 329, 330,
1124, 330, 329, 328, 330,
1126, 329, 329, 329, 329,
1129, 329, 328, 330, 329,
1131, 329, 329, 329, 329,
1133, 330, 329, 329, 330,
1136, 329, 328, 329, 330,
1138, 329, 329, 329, 330,
1140, 329, 329, 329, 330,
1142, 329, 329, 329, 330,
1145, 330, 329, 328, 333,
1147, 330, 327, 329, 330,
1149, 330, 328, 330, 329,
1153, 329, 329, 330, 329,
1155, 330, 328, 329, 329,
1157, 329, 328, 329, 330,
1160, 330, 329, 330, 330,
1162, 329, 328, 330, 330,
1164, 329, 329, 329, 329,
1167, 329, 330, 329, 331,
1169, 329, 329, 329, 330,
1171, 329, 330, 329, 330,
1174, 329, 329, 330, 330,
1176, 329, 329, 329, 330,
1178, 329, 329, 329, 331,
1181, 329, 329, 329, 331,
1183, 329, 329, 328, 330,
1185, 329, 330, 329, 330,
1188, 329, 330, 329, 329,
1190, 329, 329, 329, 330,
1192, 329, 329, 329, 330,
1196, 328, 330, 329, 330,
1198, 328, 330, 329, 330,
1200, 329, 329, 329, 330,
1203, 329, 329, 329, 332,
1205, 329, 329, 330, 330,
1207, 329, 330, 330, 330,
1210, 329, 330, 329, 331,
1212, 328, 329, 328, 331,
1214, 329, 329, 328, 330,
1217, 329, 330, 329, 330,
1219, 329, 330, 333, 330,
1221, 328, 330, 329, 329,
1224, 329, 329, 329, 330,
1226, 329, 329, 329, 330,
1228, 328, 329, 329, 329,
1230, 329, 329, 329, 329,
1233, 329, 329, 328, 330,
1235, 329, 329, 329, 329,
1238, 330, 329, 329, 329,
1241, 329, 330, 329, 329,
1243, 330, 329, 328, 330,
1245, 329, 329, 329, 329,
1248, 329, 329, 329, 330,
1250, 329, 330, 330, 329,
1252, 332, 329, 329, 329,
1255, 329, 329, 329, 330,
1257, 329, 328, 329, 330,
1259, 329, 328, 329, 329,
1262, 328, 329, 330, 329,
1264, 329, 329, 330, 329,
1266, 329, 328, 329, 330,
1269, 329, 329, 330, 330,
1271, 329, 328, 330, 330,
1273, 328, 329, 330, 329,
1276, 330, 329, 330, 330,
1278, 329, 329, 330, 330,
1281, 329, 329, 330, 330,
1284, 329, 328, 331, 329,
1286, 329, 329, 330, 329,
1288, 329, 329, 330, 331,
1291, 329, 328, 330, 330,
1293, 329, 328, 330, 329,
1295, 328, 329, 331, 329,
1298, 330, 329, 330, 330,
1300, 329, 328, 330, 330,
1302, 329, 328, 330, 329,
1305, 329, 329, 330, 329,
1307, 329, 329, 330, 329,
1309, 328, 329, 330, 330,
1312, 329, 328, 330, 329,
1314, 329, 328, 330, 329,
1316, 329, 329, 331, 329,
1318, 328, 328, 330, 329,
1321, 329, 329, 330, 330,
1324, 329, 328, 331, 329,
1326, 329, 328, 330, 329,
1329, 328, 329, 330, 328,
1331, 329, 328, 330, 328,
1333, 329, 328, 331, 329,
1336, 329, 328, 331, 329,
1338, 328, 328, 330, 329,
1340, 329, 329, 330, 329,
1343, 328, 328, 330, 330,
1345, 329, 328, 330, 329,
1347, 328, 329, 331, 329,
1350, 329, 327, 331, 329,
1352, 329, 328, 330, 330,
1354, 328, 328, 330, 331,
1357, 329, 328, 330, 329,
1359, 329, 328, 330, 329,
1361, 329, 328, 331, 329,
1364, 328, 328, 331, 330,
1367, 329, 328, 331, 330,
1369, 328, 327, 331, 329,
1372, 329, 328, 330, 329,
1374, 329, 328, 331, 329,
1376, 329, 328, 331, 331,
1379, 329, 328, 331, 332,
1381, 329, 327, 331, 329,
1383, 329, 328, 331, 329,
1386, 329, 328, 331, 330,
1388, 329, 328, 330, 330,
1390, 329, 327, 330, 330,
1393, 328, 328, 331, 329,
1395, 328, 329, 335, 330,
1397, 328, 328, 331, 330,
1400, 330, 327, 331, 329,
1402, 329, 328, 331, 329,
1404, 329, 329, 331, 329,
1406, 329, 328, 331, 329,
1410, 329, 328, 330, 330,
1412, 329, 330, 330, 329,
1414, 328, 328, 331, 329,
1417, 329, 327, 331, 329,
1419, 330, 328, 331, 330,
1421, 329, 328, 330, 330,
1424, 329, 328, 330, 329,
1426, 329, 329, 331, 329,
1428, 333, 328, 330, 329,
1431, 329, 329, 330, 331,
1433, 329, 327, 331, 330,
1435, 329, 328, 331, 330,
1438, 328, 329, 331, 329,
1440, 329, 329, 332, 329,
1442, 329, 328, 331, 330,
1445, 329, 329, 330, 329,
1447, 329, 328, 331, 329,
1449, 329, 329, 331, 329,
1453, 329, 329, 331, 330,
1455, 329, 329, 330, 330,
1457, 328, 329, 330, 329,
1460, 329, 328, 331, 329,
1462, 328, 329, 330, 330,
1464, 329, 329, 330, 330,
1467, 329, 329, 330, 330,
1469, 329, 329, 330, 330,
1471, 328, 330, 330, 330,
1474, 329, 330, 330, 331,
1476, 329, 329, 330, 331,
1478, 329, 329, 330, 330,
1481, 329, 329, 330, 331,
1483, 328, 330, 330, 330,
1485, 329, 330, 330, 331,
1488, 328, 329, 330, 330,
1490, 328, 328, 330, 331,
1492, 328, 329, 331, 330,
1495, 329, 329, 330, 331,
1498, 329, 330, 329, 330,
1500, 329, 330, 330, 331,
1502, 329, 330, 330, 330,
1505, 328, 330, 330, 330,
1507, 328, 329, 330, 330,
1509, 329, 329, 331, 331,
1512, 329, 329, 330, 330,
1514, 328, 329, 330, 330,
1516, 329, 330, 330, 330,
1519, 329, 329, 330, 331,
1521, 329, 329, 330, 331,
1523, 329, 329, 330, 331,
1526, 329, 329, 331, 331,
1528, 329, 329, 330, 331,
1530, 327, 330, 330, 331,
1533, 329, 329, 330, 330,
1536, 329, 329, 331, 330,
1538, 329, 329, 329, 330,
1541, 328, 329, 329, 331,
1543, 329, 329, 329, 331,
1545, 328, 328, 330, 331,
1548, 329, 328, 330, 330,
1550, 329, 330, 329, 330,
1552, 329, 329, 329, 331,
1555, 329, 329, 329, 333,
1557, 329, 328, 330, 330,
1559, 329, 329, 329, 330,
1562, 330, 329, 330, 331,
1564, 329, 329, 329, 330,
1566, 329, 329, 330, 331,
1569, 329, 329, 330, 330,
1571, 329, 330, 331, 330,
1573, 329, 329, 329, 332,
1575, 329, 330, 329, 331,
1579, 329, 329, 329, 331,
1581, 329, 329, 330, 330,
1583, 329, 329, 330, 329,
1586, 329, 329, 330, 331,
1588, 330, 332, 330, 330,
1590, 330, 329, 330, 330,
1593, 329, 329, 330, 330,
1595, 330, 329, 329, 331,
1597, 330, 329, 329, 331,
1600, 329, 329, 329, 331,
1602, 329, 329, 330, 330,
1604, 333, 329, 329, 330,
1607, 329, 329, 329, 332,
1609, 329, 329, 329, 331,
1611, 329, 329, 330, 330,
1614, 329, 330, 330, 330,
1616, 329, 328, 329, 330,
1618, 329, 329, 329, 331,
1622, 330, 329, 330, 330,
1624, 330, 330, 330, 330,
1626, 330, 329, 329, 330,
1629, 330, 329, 329, 331,
1631, 330, 329, 329, 331,
1633, 330, 329, 330, 330,
1636, 330, 328, 330, 330,
1638, 330, 330, 329, 331,
1640, 330, 329, 329, 331,
1643, 330, 329, 329, 330,
1645, 330, 329, 330, 330,
1647, 330, 330, 329, 330,
1650, 330, 330, 330, 330,
1652, 330, 329, 329, 330,
1654, 330, 329, 329, 330,
1657, 329, 329, 330, 331,
1659, 330, 330, 330, 329,
1661, 330, 329, 330, 329,
1664, 330, 329, 330, 330,
1667, 330, 329, 329, 330,
1669, 330, 329, 329, 330,
1671, 330, 329, 329, 330,
1674, 331, 329, 329, 331,
1676, 330, 330, 329, 330,
1678, 330, 329, 329, 330,
1681, 330, 329, 329, 329,
1683, 330, 329, 328, 330,
1685, 330, 328, 329, 330,
1688, 330, 329, 329, 330,
1690, 330, 329, 329, 330,
1692, 331, 329, 329, 330,
1695, 331, 329, 329, 331,
1697, 331, 328, 328, 330,
1699, 332, 329, 329, 330,
1702, 330, 330, 329, 330,
1704, 331, 329, 328, 330,
1707, 329, 330, 329, 330,
1710, 330, 328, 329, 330,
1712, 330, 329, 329, 329,
1714, 331, 329, 329, 329,
1717, 331, 329, 329, 330,
1719, 331, 329, 329, 330,
1721, 331, 328, 327, 329,
1724, 331, 329, 329, 330,
1726, 330, 329, 329, 329,
1728, 331, 329, 328, 329,
1731, 331, 329, 329, 330,
1733, 331, 328, 329, 329,
1735, 330, 329, 329, 329,
1738, 331, 329, 329, 330,
1740, 331, 329, 329, 330,
1742, 331, 328, 330, 330,
1745, 330, 329, 329, 329,
1747, 330, 329, 329, 329,
1750, 331, 328, 328, 331,
1752, 331, 329, 329, 329,
1755, 331, 328, 329, 330,
1757, 331, 329, 329, 330,
1759, 331, 329, 329, 329,
1762, 331, 329, 329, 330,
1764, 331, 330, 329, 330,
1766, 332, 329, 329, 330,
1769, 331, 330, 329, 330,
1771, 332, 328, 329, 330,
1773, 331, 329, 328, 330,
1776, 331, 328, 328, 330,
1778, 331, 329, 329, 330,
1780, 332, 329, 328, 331,
1783, 331, 329, 329, 330,
1785, 331, 329, 329, 330,
1787, 331, 329, 329, 330,
1790, 331, 329, 329, 330,
1793, 331, 329, 330, 330,
1795, 331, 328, 329, 330,
1798, 331, 329, 329, 330,
1800, 331, 329, 330, 330,
1802, 332, 329, 329, 329,
1805, 332, 329, 329, 330,
1807, 332, 329, 329, 330,
1809, 330, 329, 329, 329,
1812, 332, 328, 330, 330,
1814, 332, 329, 329, 330,
1816, 332, 329, 329, 330,
1819, 331, 329, 329, 330,
1821, 331, 329, 329, 330,
1823, 331, 329, 329, 328,
1826, 331, 329, 329, 330,
1828, 331, 329, 330, 330,
1830, 331, 329, 328, 329,
1833, 332, 329, 329, 333,
1836, 331, 329, 329, 329,
1838, 331, 329, 329, 330,
1840, 331, 328, 330, 329,
1843, 331, 329, 330, 329,
1845, 331, 329, 330, 329,
1847, 331, 329, 329, 329,
1850, 332, 329, 329, 329,
1852, 331, 329, 330, 329,
1854, 332, 329, 330, 329,
1857, 331, 329, 329, 329,
1859, 331, 329, 329, 331,
1861, 331, 328, 329, 329,
1864, 331, 329, 328, 329,
1866, 331, 332, 329, 329,
1868, 332, 329, 330, 329,
1871, 331, 329, 329, 330,
1873, 332, 329, 330, 329,
1875, 331, 329, 330, 329,
1879, 331, 330, 330, 329,
1881, 332, 329, 330, 330,
1883, 335, 329, 330, 329,
1886, 331, 329, 330, 329,
1888, 331, 328, 331, 330,
1890, 332, 329, 330, 330,
1893, 332, 329, 330, 330,
1895, 331, 329, 330, 330,
1897, 331, 329, 330, 329,
1900, 332, 329, 330, 329,
1902, 331, 329, 330, 329,
1904, 332, 329, 330, 330,
1907, 332, 329, 330, 330,
1909, 331, 330, 330, 330,
1911, 331, 329, 330, 329,
1914, 332, 329, 330, 330,
1916, 332, 329, 330, 331,
1918, 331, 329, 331, 330,
1922, 331, 329, 331, 329,
1924, 332, 330, 331, 331,
1926, 332, 329, 330, 331,
1928, 332, 329, 331, 330,
1931, 332, 329, 331, 330,
1933, 331, 329, 330, 329,
1935, 332, 329, 330, 329,
1938, 332, 329, 331, 331,
1940, 331, 329, 330, 330,
1942, 332, 329, 331, 330,
1945, 331, 330, 330, 330,
1947, 332, 328, 329, 331,
1949, 332, 328, 330, 330,
1952, 331, 328, 330, 330,
1954, 331, 329, 331, 330,
1956, 332, 329, 331, 330,
1959, 332, 329, 331, 331,
1961, 331, 329, 331, 330,
1964, 331, 329, 331, 330,
1967, 331, 330, 331, 330,
1969, 331, 328, 331, 331,
1971, 331, 328, 331, 330,
1974, 332, 329, 330, 330,
1976, 331, 329, 332, 330,
1978, 332, 329, 331, 330,
1981, 332, 329, 331, 330,
1983, 332, 329, 331, 330,
1985, 331, 329, 332, 330,
1988, 332, 330, 332, 331,
1990, 332, 329, 331, 331,
1992, 332, 329, 331, 331,
1995, 331, 329, 331, 331,
1997, 331, 329, 331, 330,
1999, 332, 329, 332, 330,
2002, 332, 328, 332, 330,
2004, 332, 329, 331, 330,
2007, 332, 328, 330, 330,
2010, 332, 329, 331, 331,
2012, 331, 330, 331, 330,
2014, 332, 329, 332, 330,
2016, 331, 329, 331, 330,
2019, 331, 328, 331, 330,
2021, 331, 329, 331, 330,
2023, 331, 329, 331, 330,
2026, 332, 329, 334, 332,
2028, 331, 329, 332, 330,
2030, 331, 329, 332, 330,
2033, 330, 329, 331, 331,
2035, 331, 329, 331, 331,
2037, 330, 328, 331, 330,
2040, 331, 329, 330, 330,
2042, 330, 332, 331, 330,
2044, 330, 329, 331, 330,
2048, 331, 329, 331, 330,
2050, 331, 329, 332, 330,
2052, 332, 329, 331, 330,
2055, 330, 330, 331, 330,
2057, 331, 329, 331, 331,
2059, 334, 329, 332, 330,
2062, 331, 329, 332, 330,
2064, 330, 328, 332, 330,
2066, 331, 329, 331, 331,
2069, 331, 329, 331, 330,
2071, 331, 329, 331, 330,
2073, 331, 329, 332, 330,
2076, 331, 330, 331, 329,
2078, 330, 330, 331, 329,
2080, 331, 329, 330, 330,
2083, 331, 329, 330, 330,
2085, 330, 330, 331, 329,
2087, 330, 332, 331, 331,
2091, 331, 329, 330, 330,
2093, 331, 330, 331, 330,
2095, 331, 328, 332, 330,
2098, 330, 330, 331, 330,
2100, 331, 329, 331, 328,
2102, 331, 329, 331, 331,
2104, 331, 329, 331, 330,
2107, 331, 328, 331, 330,
2109, 330, 329, 331, 329,
2111, 331, 329, 331, 331,
2114, 330, 329, 331, 330,
2116, 331, 329, 331, 330,
2118, 331, 329, 331, 329,
2121, 330, 330, 331, 329,
2123, 331, 328, 330, 330,
2125, 330, 329, 331, 330,
2128, 330, 328, 330, 330,
2130, 330, 329, 331, 329,
2132, 334, 330, 331, 329,
2136, 331, 329, 330, 330,
2138, 331, 330, 330, 330,
2140, 330, 330, 331, 330,
2143, 330, 330, 330, 329,
2145, 330, 329, 330, 330,
2147, 330, 328, 330, 330,
2150, 331, 330, 328, 330,
2152, 330, 330, 330, 329,
2154, 331, 330, 330, 329,
2157, 330, 330, 329, 330,
2159, 330, 330, 330, 330,
2161, 330, 331, 330, 330,
2164, 330, 331, 330, 330,
2166, 331, 330, 330, 331,
2168, 330, 330, 330, 330,
2171, 330, 330, 330, 329,
2173, 331, 330, 330, 330,
2176, 330, 330, 330, 330,
2179, 331, 330, 330, 330,
2181, 330, 330, 329, 330,
2183, 330, 330, 330, 330,
2185, 331, 330, 330, 331,
2188, 330, 330, 330, 329,
2190, 330, 330, 330, 330,
2192, 330, 329, 330, 330,
2195, 330, 330, 330, 330,
2197, 330, 330, 330, 330,
2199, 330, 329, 329, 331,
2202, 331, 330, 332, 330,
2204, 330, 330, 329, 330,
2206, 330, 330, 330, 330,
2209, 330, 331, 329, 331,
2211, 330, 330, 330, 331,
2213, 330, 330, 330, 329,
2216, 330, 330, 331, 330,
2219, 330, 333, 329, 331,
2221, 331, 330, 330, 330,
2224, 330, 330, 330, 330,
2226, 331, 329, 330, 330,
2228, 331, 330, 330, 330,
2231, 330, 331, 330, 330,
2233, 330, 330, 330, 331,
2235, 333, 330, 330, 331,
2238, 330, 329, 331, 330,
2240, 330, 329, 331, 330,
2242, 331, 330, 330, 331,
2245, 331, 330, 330, 330,
2247, 330, 330, 330, 330,
2249, 331, 330, 331, 330,
2252, 330, 330, 330, 329,
2254, 330, 330, 330, 331,
2256, 330, 330, 330, 331,
2259, 331, 329, 330, 331,
2262, 330, 330, 330, 330,
2264, 330, 330, 330, 332,
2267, 330, 329, 330, 330,
2269, 330, 330, 330, 331,
2271, 330, 330, 331, 330,
2273, 330, 329, 331, 330,
2276, 331, 330, 330, 330,
2278, 331, 329, 330, 331,
2280, 330, 330, 331, 330,
2283, 330, 329, 331, 330,
2285, 330, 329, 331, 330,
2287, 331, 329, 330, 332,
2290, 331, 329, 331, 330,
2292, 331, 329, 331, 330,
2294, 331, 329, 330, 330,
2297, 331, 329, 331, 330,
2299, 331, 329, 330, 331,
2301, 330, 330, 331, 331,
2305, 330, 329, 330, 330,
2307, 330, 329, 331, 330,
2309, 331, 329, 331, 331,
2312, 331, 329, 331, 331,
2314, 331, 330, 331, 330,
2316, 330, 330, 331, 331,
2319, 330, 329, 331, 331,
2321, 331, 329, 331, 331,
2323, 331, 328, 331, 331,
2326, 331, 329, 330, 330,
2328, 331, 329, 331, 330,
2330, 331, 330, 331, 330,
2333, 331, 329, 331, 331,
2335, 331, 329, 330, 331,
2337, 330, 330, 332, 331,
2340, 330, 330, 331, 331,
2342, 331, 329, 330, 331,
2344, 332, 329, 331, 331,
2348, 331, 329, 332, 330,
2350, 331, 328, 331, 330,
2352, 331, 329, 331, 331,
2355, 331, 328, 330, 331,
2357, 331, 329, 331, 330,
2359, 331, 329, 331, 330,
2361, 331, 329, 331, 331,
2364, 331, 329, 330, 330,
2366, 332, 329, 331, 330,
2368, 331, 329, 331, 330,
2371, 331, 329, 331, 330,
2373, 331, 329, 331, 330,
2375, 331, 328, 330, 331,
2378, 331, 329, 332, 331,
2380, 331, 329, 331, 331,
2382, 331, 328, 331, 330,
2385, 332, 329, 331, 331,
2387, 332, 328, 331, 331,
2390, 331, 329, 331, 329,
2393, 331, 327, 332, 330,
2395, 330, 329, 331, 330,
2397, 332, 329, 331, 331,
2400, 331, 329, 330, 331,
2402, 331, 329, 330, 330,
2404, 332, 329, 331, 330,
2407, 331, 329, 330, 330,
2409, 331, 329, 331, 331,
2411, 333, 329, 331, 331,
2414, 331, 327, 332, 330,
2416, 331, 329, 331, 330,
2418, 332, 329, 331, 331,
2421, 331, 329, 331, 330,
2423, 331, 328, 331, 329,
2425, 331, 328, 332, 330,
2428, 331, 329, 331, 330,
2430, 331, 329, 330, 331,
2433, 331, 329, 330, 330,
2436, 331, 329, 331, 330,
2438, 330, 330, 330, 329,
2440, 330, 329, 331, 330,
2443, 331, 329, 331, 330,
2445, 331, 329, 331, 330,
2447, 331, 329, 330, 329,
2449, 331, 330, 330, 330,
2452, 332, 329, 331, 330,
2454, 332, 329, 330, 330,
2456, 331, 330, 330, 329,
2459, 331, 328, 331, 329,
2461, 331, 330, 330, 330,
2463, 331, 329, 330, 332,
2466, 331, 329, 330, 330,
2468, 331, 329, 330, 330,
2470, 331, 329, 330, 329,
2473, 331, 331, 330, 328,
2476, 331, 329, 330, 330,
2478, 331, 329, 330, 330,
2481, 330, 330, 331, 329,
2483, 331, 330, 330, 329,
2485, 331, 329, 329, 330,
2488, 331, 329, 329, 330,
2490, 331, 329, 330, 329,
2492, 330, 330, 330, 329,
2495, 331, 330, 329, 330,
2497, 331, 330, 330, 330,
2499, 330, 330, 329, 330,
2502, 331, 329, 330, 330,
2504, 331, 330, 329, 329,
2506, 331, 330, 330, 329,
2509, 331, 330, 329, 329,
2511, 331, 329, 329, 329,
2513, 331, 329, 330, 329,
2516, 330, 330, 330, 330,
2519, 331, 329, 329, 330,
2521, 331, 330, 330, 330,
2524, 331, 330, 329, 329,
2526, 331, 329, 330, 329,
2528, 331, 330, 330, 330,
2531, 330, 329, 330, 330,
2533, 331, 329, 330, 329,
2535, 331, 330, 330, 329,
2537, 330, 329, 330, 330,
2540, 330, 329, 330, 330,
2542, 331, 329, 330, 329,
2544, 330, 329, 330, 329,
2547, 330, 330, 330, 328,
2549, 330, 330, 329, 328,
2551, 330, 329, 329, 330,
2554, 331, 329, 330, 330,
2556, 330, 329, 330, 329,
2558, 330, 329, 330, 329,
2562, 331, 329, 330, 329,
2564, 330, 329, 330, 329,
2566, 330, 329, 330, 328,
2569, 330, 328, 331, 329,
2571, 330, 329, 330, 330,
2573, 330, 329, 330, 330,
2576, 330, 329, 330, 329,
2578, 330, 329, 328, 329,
2580, 331, 329, 329, 328,
2583, 330, 329, 329, 330,
2585, 330, 329, 330, 329,
2587, 332, 329, 330, 329,
2590, 330, 329, 330, 329,
2592, 330, 329, 330, 328,
2594, 330, 329, 330, 329,
2597, 330, 329, 330, 329,
2599, 330, 328, 330, 328,
2601, 330, 328, 331, 328,
2605, 330, 329, 330, 329,
2607, 330, 329, 330, 330,
2609, 330, 329, 330, 328,
2612, 330, 329, 330, 329,
2614, 330, 329, 330, 328,
2616, 328, 330, 330, 327,
2619, 330, 328, 330, 328,
2621, 330, 329, 329, 329,
2623, 329, 329, 330, 328,
2625, 330, 329, 330, 329,
2628, 330, 329, 330, 328,
2630, 330, 328, 330, 328,
2632, 331, 329, 330, 328,
2635, 329, 327, 330, 328,
2637, 328, 328, 329, 329,
2639, 329, 328, 330, 333,
2642, 330, 328, 330, 328,
2644, 329, 329, 330, 328,
2647, 330, 328, 330, 328,
2650, 329, 329, 330, 328,
2652, 329, 328, 330, 329,
2654, 329, 328, 330, 329,
2657, 329, 329, 331, 329,
2659, 329, 329, 330, 328,
2661, 329, 329, 329, 329,
2664, 329, 329, 330, 329,
2666, 329, 328, 331, 329,
2668, 330, 329, 330, 328,
2671, 330, 329, 330, 329,
2673, 329, 332, 329, 328,
2675, 329, 329, 330, 329,
2678, 329, 328, 330, 328,
2680, 328, 329, 330, 328,
2682, 329, 329, 330, 330,
2685, 329, 329, 330, 329,
2688, 329, 329, 329, 329,
2690, 328, 329, 330, 329,
2693, 329, 329, 330, 329,
2695, 329, 329, 329, 330,
2697, 329, 329, 330, 329,
2700, 328, 329, 330, 329,
2702, 328, 329, 330, 329,
2704, 329, 329, 330, 330,
2707, 329, 328, 330, 329,
2709, 329, 328, 330, 329,
2711, 328, 329, 330, 329,
2713, 329, 329, 330, 330,
2716, 329, 329, 330, 328,
2718, 328, 329, 330, 330,
2720, 328, 329, 330, 329,
2723, 329, 329, 330, 328,
2725, 328, 329, 330, 328,
2727, 328, 328, 330, 329,
2731, 329, 329, 330, 329,
2733, 328, 329, 330, 329,
2735, 328, 329, 330, 329,
2738, 329, 329, 330, 330,
2740, 328, 329, 329, 330,
2742, 327, 329, 329, 329,
2745, 328, 328, 331, 329,
2747, 328, 329, 329, 330,
2749, 329, 329, 330, 331,
2752, 328, 329, 330, 330,
2754, 328, 329, 329, 329,
2756, 328, 329, 329, 329,
2759, 328, 329, 329, 329,
2761, 328, 329, 329, 330,
2763, 328, 329, 330, 331,
2766, 328, 330, 330, 329,
2768, 328, 330, 330, 329,
2770, 328, 329, 329, 330,
2774, 328, 329, 329, 329,
2776, 328, 327, 329, 330,
2778, 328, 328, 330, 329,
2781, 328, 329, 330, 329,
2783, 328, 329, 329, 330,
2785, 328, 328, 329, 329,
2788, 328, 329, 330, 329,
2790, 328, 329, 329, 329,
2792, 326, 330, 329, 329,
2794, 328, 329, 329, 329,
2797, 328, 329, 329, 329,
2799, 328, 329, 329, 329,
2801, 329, 329, 329, 329,
2804, 328, 329, 329, 330,
2806, 328, 328, 329, 330,
2808, 328, 329, 329, 330,
2811, 328, 328, 329, 329,
2813, 329, 329, 329, 330,
2816, 328, 329, 329, 335,
2819, 328, 329, 329, 330,
2821, 328, 329, 330, 330,
2823, 328, 329, 329, 329,
2826, 328, 329, 329, 331,
2828, 328, 328, 329, 330,
2830, 327, 328, 330, 330,
2833, 328, 329, 334, 330,
2835, 327, 329, 329, 329,
2837, 328, 328, 329, 331,
2840, 328, 329, 329, 330,
2842, 328, 330, 329, 330,
2844, 328, 329, 330, 330,
2847, 329, 329, 329, 331,
2849, 328, 332, 330, 330,
2851, 327, 329, 329, 330,
2854, 328, 329, 330, 329,
2856, 327, 329, 329, 330,
2859, 328, 329, 329, 331,
2862, 328, 329, 328, 330,
2864, 328, 329, 329, 330,
2866, 331, 329, 329, 329,
2869, 328, 329, 329, 330,
2871, 327, 329, 329, 330,
2873, 328, 329, 330, 330,
2876, 329, 329, 329, 330,
2878, 327, 330, 329, 330,
2880, 328, 329, 329, 331,
2882, 328, 329, 329, 330,
2885, 328, 329, 329, 330,
2887, 327, 330, 329, 330,
2889, 328, 329, 329, 330,
2892, 328, 329, 329, 331,
2894, 328, 331, 329, 329,
2896, 327, 329, 329, 329,
2899, 327, 329, 329, 329,
2902, 327, 329, 329, 328,
2904, 327, 329, 329, 330,
2907, 327, 329, 330, 329,
2909, 327, 330, 329, 330,
2911, 327, 329, 329, 329,
2914, 328, 329, 329, 330,
2916, 328, 329, 329, 330,
2918, 326, 329, 329, 329,
2921, 327, 328, 330, 329,
2923, 327, 329, 328, 330,
2925, 327, 329, 329, 330,
2928, 328, 329, 329, 329,
2930, 327, 329, 330, 329,
2932, 327, 329, 329, 328,
2935, 327, 329, 329, 329,
2937, 327, 329, 329, 329,
2939, 328, 328, 330, 329,
2942, 327, 329, 330, 329,
2945, 327, 329, 330, 329,
2947, 327, 328, 329, 329,
2950, 327, 328, 330, 329,
2952, 327, 327, 329, 330,
2954, 327, 328, 330, 329,
2957, 327, 328, 329, 330,
2959, 328, 329, 329, 330,
2961, 327, 328, 329, 329,
2964, 326, 329, 329, 329,
2966, 327, 329, 329, 328,
2968, 326, 328, 329, 330,
2970, 327, 328, 329, 329,
2973, 327, 329, 330, 329,
2975, 327, 329, 329, 329,
2977, 327, 329, 329, 330,
2980, 327, 329, 329, 330,
2982, 327, 329, 329, 330,
2984, 327, 329, 329, 330,
2988, 326, 330, 329, 329,
2990, 326, 329, 328, 330,
2992, 327, 329, 328, 335,
2995, 327, 329, 329, 330,
2997, 327, 329, 329, 329,
2999, 327, 329, 328, 329,
3002, 327, 329, 329, 331,
3004, 327, 328, 329, 330,
3006, 327, 329, 329, 330,
3009, 326, 330, 333, 330,
3011, 327, 330, 328, 329,
3013, 328, 329, 329, 330,
3016, 327, 329, 329, 330,
3018, 327, 329, 329, 330,
3020, 327, 329, 329, 328,
3023, 327, 329, 329, 331,
3025, 327, 332, 329, 330,
3027, 327, 329, 330, 330,
3031, 327, 328, 330, 329,
3033, 326, 329, 329, 330,
3035, 327, 329, 328, 331,
3038, 327, 329, 328, 330,
3040, 326, 329, 328, 330,
3042, 330, 330, 328, 330,
3045, 326, 329, 327, 330,
3047, 326, 329, 328, 330,
3049, 326, 329, 327, 330,
3052, 327, 329, 328, 331,
3054, 325, 330, 327, 330,
3056, 326, 328, 327, 331,
3058, 326, 328, 328, 330,
3061, 326, 328, 328, 330,
3063, 326, 329, 329, 330,
3065, 326, 329, 328, 331,
3068, 326, 329, 328, 330,
3070, 326, 329, 328, 330,
3073, 326, 330, 329, 331,
3076, 327, 329, 329, 330,
3078, 326, 329, 329, 330,
3080, 327, 328, 329, 331,
3083, 328, 329, 330, 331,
3085, 327, 329, 330, 330,
3087, 327, 329, 330, 330,
3090, 327, 329, 330, 331,
3092, 328, 329, 330, 331,
3094, 328, 329, 331, 331,
3097, 327, 329, 331, 331,
3099, 328, 330, 330, 332,
3101, 328, 329, 330, 331,
3104, 327, 328, 330, 329,
3106, 328, 328, 331, 328,
3108, 328, 329, 330, 327,
3111, 327, 329, 329, 328,
3113, 327, 328, 330, 329,
3116, 328, 328, 330, 329,
3119, 328, 328, 331, 330,
3121, 328, 329, 331, 329,
3123, 328, 328, 330, 331,
3126, 328, 328, 330, 330,
3128, 328, 327, 331, 331,
3130, 327, 329, 330, 330,
3133, 328, 328, 330, 331,
3135, 328, 328, 330, 331,
3137, 328, 327, 330, 331,
3140, 328, 328, 331, 330,
3142, 328, 328, 330, 330,
3144, 327, 328, 330, 330,
3146, 328, 327, 330, 330,
3149, 328, 329, 330, 330,
3151, 327, 328, 330, 330,
3153, 328, 328, 330, 331,
3156, 327, 328, 330, 330,
3159, 327, 328, 330, 330,
3161, 327, 327, 330, 330,
3164, 328, 328, 330, 330,
3166, 329, 327, 330, 330,
3168, 329, 327, 329, 330,
3171, 329, 327, 330, 330,
3173, 329, 327, 330, 330,
3175, 329, 327, 329, 330,
3178, 329, 328, 329, 331,
3180, 329, 327, 329, 330,
3182, 329, 327, 330, 330,
3185, 330, 328, 333, 331,
3187, 329, 327, 329, 329,
3189, 329, 326, 328, 331,
3192, 329, 327, 329, 330,
3194, 328, 327, 330, 329,
3196, 328, 328, 330, 329,
3200, 329, 327, 329, 330,
3202, 329, 328, 329, 329,
3204, 329, 327, 330, 330,
3207, 330, 327, 330, 330,
3209, 330, 328, 329, 331,
3211, 330, 328, 329, 331,
3214, 330, 327, 328, 330,
3216, 330, 327, 329, 329,
3218, 331, 328, 329, 330,
3221, 330, 327, 329, 330,
3223, 330, 327, 329, 330,
3225, 330, 327, 328, 330,
3228, 331, 328, 329, 331,
3230, 330, 328, 329, 331,
3232, 331, 327, 328, 331,
3234, 330, 327, 329, 330,
3237, 331, 327, 329, 330,
3239, 331, 328, 329, 330,
3241, 332, 328, 329, 330,
3245, 332, 328, 328, 331,
3247, 331, 328, 328, 331,
3249, 332, 328, 329, 330,
3252, 333, 328, 329, 330,
3254, 333, 328, 328, 332,
3256, 333, 327, 329, 331,
3259, 334, 328, 329, 330,
3261, 335, 328, 328, 330,
3263, 335, 328, 328, 330,
3266, 336, 328, 328, 330,
3268, 336, 328, 328, 330,
3270, 337, 329, 328, 333,
3273, 336, 329, 329, 330,
3275, 337, 329, 329, 330,
3277, 337, 328, 327, 331,
3280, 337, 329, 327, 331,
3282, 337, 328, 328, 330,
3284, 338, 329, 327, 330,
3288, 338, 329, 327, 330,
3290, 338, 329, 327, 330,
3292, 338, 329, 328, 330,
3295, 338, 329, 327, 330,
3297, 338, 330, 327, 330,
3299, 338, 329, 326, 331,
3302, 339, 329, 326, 330,
3304, 338, 328, 325, 331,
3306, 338, 330, 327, 330,
3309, 338, 329, 326, 330,
3311, 339, 329, 326, 331,
3313, 338, 329, 327, 331,
3316, 338, 329, 326, 330,
3318, 339, 330, 326, 331,
3320, 339, 329, 325, 332,
3322, 339, 329, 325, 330,
3325, 340, 329, 326, 330,
3328, 339, 329, 325, 330,
3330, 340, 329, 326, 328,
3333, 341, 329, 326, 330,
3335, 341, 328, 326, 329,
3337, 341, 329, 326, 329,
3340, 341, 330, 326, 330,
3342, 342, 329, 326, 331,
3344, 342, 329, 326, 331,
3347, 343, 329, 327, 330,
3349, 343, 330, 327, 331,
3351, 343, 330, 326, 332,
3354, 343, 330, 327, 332,
3356, 343, 330, 327, 331,
3358, 343, 330, 328, 331,
3361, 343, 330, 328, 331,
3363, 343, 330, 328, 331,
3365, 344, 330, 327, 331,
3368, 344, 330, 327, 331,
3371, 344, 331, 329, 331,
3373, 344, 330, 328, 330,
3376, 345, 330, 328, 332,
3378, 344, 331, 328, 332,
3380, 344, 330, 329, 332,
3383, 343, 330, 329, 332,
3385, 344, 331, 329, 332,
3387, 344, 331, 329, 333,
3390, 344, 330, 328, 332,
3392, 344, 330, 329, 331,
3394, 344, 331, 329, 330,
3397, 343, 331, 329, 331,
3399, 342, 331, 329, 331,
3401, 343, 330, 329, 331,
3403, 343, 331, 329, 332,
3406, 344, 330, 329, 333,
3408, 344, 330, 329, 333,
3410, 344, 331, 330, 332,
3414, 343, 331, 330, 332,
3416, 342, 331, 330, 332,
3418, 342, 331, 329, 333,
3421, 343, 331, 330, 332,
3423, 341, 331, 330, 331,
3425, 341, 331, 330, 331,
3428, 341, 331, 330, 331,
3430, 341, 331, 330, 333,
3432, 341, 329, 330, 332,
3435, 341, 330, 330, 332,
3437, 341, 331, 330, 332,
3439, 341, 331, 330, 332,
3442, 341, 331, 330, 334,
3444, 341, 331, 330, 333,
3446, 341, 331, 330, 336,
3449, 340, 332, 329, 333,
3451, 341, 330, 330, 333,
3453, 340, 330, 330, 333,
3457, 340, 331, 331, 333,
3459, 340, 330, 331, 333,
3461, 339, 331, 330, 334,
3464, 339, 331, 334, 333,
3466, 339, 331, 330, 334,
3468, 339, 331, 331, 333,
3471, 339, 331, 330, 333,
3473, 338, 331, 330, 332,
3475, 339, 331, 329, 333,
3478, 338, 331, 330, 333,
3480, 338, 334, 329, 333,
3482, 338, 332, 330, 333,
3485, 338, 330, 330, 333,
3487, 339, 331, 330, 333,
3489, 338, 331, 330, 333,
3491, 337, 331, 330, 333,
3494, 337, 331, 329, 333,
3496, 337, 331, 330, 332,
3499, 336, 331, 329, 330,
3502, 336, 330, 330, 331,
3504, 336, 330, 329, 330,
3506, 336, 330, 330, 330,
3509, 337, 330, 329, 330,
3511, 336, 329, 329, 331,
3513, 336, 330, 328, 332,
3516, 336, 331, 329, 331,
3518, 336, 330, 329, 333,
3520, 336, 330, 329, 332,
3523, 335, 330, 330, 331,
3525, 335, 330, 330, 332,
3527, 334, 330, 329, 333,
3530, 334, 331, 329, 334,
3532, 334, 330, 329, 333,
3534, 333, 331, 329, 332,
3537, 333, 331, 332, 333,
3539, 333, 330, 329, 334,
3542, 333, 330, 329, 333,
3545, 333, 330, 328, 333,
3547, 333, 331, 329, 333,
3549, 334, 329, 329, 332,
3552, 334, 330, 328, 334,
3554, 334, 331, 328, 333,
3556, 333, 329, 329, 333,
3559, 333, 331, 329, 333,
3561, 333, 330, 329, 331,
3563, 333, 330, 329, 329,
3566, 332, 329, 328, 329,
3568, 331, 329, 329, 329,
3570, 331, 329, 329, 331,
3573, 331, 329, 330, 332,
3575, 332, 329, 329, 333,
3577, 331, 329, 330, 333,
3579, 331, 329, 330, 332,
3582, 330, 328, 329, 335,
3585, 331, 329, 329, 334,
3587, 330, 330, 329, 333,
3590, 330, 329, 329, 334,
3592, 330, 330, 329, 334,
3594, 330, 330, 329, 334,
3597, 330, 330, 328, 335,
3599, 329, 330, 329, 335,
3601, 329, 330, 329, 334,
3604, 329, 329, 329, 334,
3606, 329, 330, 328, 335,
3608, 328, 330, 328, 334,
3611, 329, 330, 328, 334,
3613, 329, 330, 328, 334,
3615, 329, 330, 328, 334,
3618, 329, 330, 327, 335,
3620, 328, 330, 327, 333,
3622, 329, 330, 327, 335,
3625, 328, 331, 327, 328,
3628, 327, 330, 327, 328,
3630, 326, 330, 326, 330,
3633, 326, 330, 327, 331,
3635, 327, 328, 327, 332,
3637, 328, 331, 325, 334,
3640, 327, 330, 329, 334,
3642, 327, 330, 324, 334,
3644, 327, 331, 325, 333,
3647, 326, 331, 325, 332,
3649, 325, 331, 324, 332,
3651, 326, 330, 324, 332,
3654, 326, 329, 325, 333,
3656, 325, 334, 324, 334,
3658, 326, 331, 324, 334,
3661, 326, 331, 324, 335,
3663, 326, 331, 324, 335,
3665, 325, 331, 323, 335,
3667, 325, 331, 323, 336,
3671, 326, 331, 322, 336,
3673, 328, 331, 323, 336,
3675, 324, 331, 322, 335,
3678, 325, 330, 322, 335,
3680, 324, 330, 321, 334,
3682, 324, 330, 320, 337,
3685, 324, 330, 321, 335,
3687, 323, 329, 320, 331,
3689, 322, 329, 319, 330,
3692, 323, 330, 319, 330,
3694, 322, 329, 317, 333,
3696, 322, 328, 317, 334,
3699, 322, 327, 317, 334,
3701, 322, 329, 316, 334,
3703, 322, 329, 314, 335,
3706, 321, 328, 314, 336,
3708, 321, 329, 312, 335,
3710, 320, 329, 313, 335,
3714, 320, 330, 312, 334,
3716, 320, 330, 310, 336,
3718, 320, 329, 309, 335,
3721, 319, 329, 307, 334,
3723, 318, 330, 307, 334,
3725, 318, 330, 306, 332,
3728, 318, 329, 304, 333,
3730, 317, 330, 304, 334,
3732, 316, 329, 304, 333,
3735, 315, 330, 303, 335,
3737, 316, 329, 302, 334,
3739, 316, 329, 303, 334,
3742, 315, 329, 303, 333,
3744, 315, 328, 303, 333,
3746, 316, 328, 304, 333,
3749, 315, 329, 303, 334,
3751, 315, 329, 304, 333,
3753, 315, 329, 304, 333,
3756, 316, 329, 305, 333,
3759, 315, 329, 305, 332,
3761, 315, 328, 305, 331,
3763, 315, 329, 306, 331,
3766, 315, 329, 307, 330,
3768, 315, 328, 307, 329,
3770, 315, 328, 307, 329,
3773, 315, 328, 308, 327,
3775, 314, 328, 308, 327,
3777, 315, 328, 308, 328,
3780, 315, 328, 309, 330,
3782, 314, 327, 308, 331,
3784, 314, 328, 309, 331,
3787, 314, 327, 309, 331,
3789, 313, 328, 310, 330,
3791, 313, 328, 310, 331,
3794, 313, 328, 310, 331,
3796, 313, 327, 310, 331,
3799, 314, 328, 311, 332,
3802, 312, 328, 312, 330,
3804, 314, 328, 312, 330,
3806, 313, 327, 312, 331,
3809, 313, 327, 313, 330,
3811, 313, 327, 313, 330,
3813, 313, 328, 313, 330,
3816, 313, 328, 316, 330,
3818, 313, 327, 314, 330,
3820, 313, 327, 316, 329,
3823, 313, 328, 316, 329,
3825, 313, 328, 316, 330,
3827, 313, 327, 317, 328,
3830, 313, 327, 319, 329,
3832, 313, 328, 319, 329,
3834, 313, 328, 320, 328,
3837, 314, 328, 320, 329,
3840, 314, 327, 321, 329,
3842, 314, 328, 321, 328,
3844, 314, 328, 321, 329,
3847, 314, 328, 322, 329,
3849, 317, 327, 323, 329,
3851, 314, 327, 324, 328,
3854, 314, 327, 325, 328,
3856, 314, 327, 325, 327,
3858, 314, 327, 326, 329,
3861, 314, 326, 327, 328,
3863, 315, 327, 327, 327,
3865, 314, 327, 328, 327,
3868, 314, 327, 328, 327,
3870, 315, 326, 329, 327,
3872, 314, 326, 329, 327,
3875, 314, 326, 330, 327,
3877, 315, 326, 330, 327,
3879, 315, 326, 331, 327,
3883, 315, 327, 331, 327,
3885, 315, 326, 333, 326,
3887, 314, 327, 333, 326,
3890, 316, 327, 334, 327,
3892, 315, 327, 334, 327,
3894, 317, 326, 334, 326,
3897, 316, 326, 335, 326,
3899, 315, 327, 335, 325,
3901, 315, 327, 336, 324,
3904, 316, 326, 336, 326,
3906, 316, 327, 336, 325,
3908, 315, 327, 337, 325,
3911, 315, 327, 337, 325,
3913, 316, 326, 337, 326,
3915, 315, 326, 337, 325,
3918, 314, 327, 340, 325,
3920, 315, 326, 338, 324,
3922, 315, 327, 338, 324,
3926, 315, 326, 338, 324,
3928, 316, 326, 339, 324,
3930, 315, 327, 339, 323,
3932, 315, 326, 339, 324,
3935, 315, 327, 339, 324,
3937, 315, 326, 340, 324,
3939, 315, 326, 340, 324,
3942, 315, 327, 340, 324,
3944, 314, 327, 340, 323,
3946, 315, 326, 340, 324,
3949, 315, 327, 341, 324,
3951, 315, 327, 341, 323,
3953, 316, 327, 341, 323,
3956, 315, 327, 341, 324,
3958, 315, 326, 341, 324,
3960, 314, 327, 342, 323,
3963, 315, 326, 342, 323,
3965, 314, 327, 342, 322,
3968, 314, 327, 342, 324,
3971, 314, 327, 342, 323,
3973, 314, 327, 342, 323,
3975, 315, 327, 343, 323,
3978, 314, 328, 344, 322,
3980, 315, 327, 344, 323,
3982, 314, 327, 343, 323,
3985, 314, 326, 344, 323,
3987, 314, 328, 344, 322,
3989, 315, 328, 344, 323,
3992, 314, 328, 346, 322,
3994, 314, 327, 344, 323,
3996, 314, 328, 343, 323,
3999, 314, 329, 344, 322,
4001, 314, 328, 344, 324,
4003, 314, 328, 344, 321,
4006, 314, 328, 344, 322,
4008, 314, 329, 343, 323,
4011, 313, 329, 344, 321,
4013, 314, 329, 344, 322,
4016, 313, 329, 344, 322,
4018, 313, 329, 344, 322,
4020, 313, 329, 343, 322,
4023, 314, 329, 344, 323,
4025, 317, 328, 344, 323,
4027, 313, 329, 345, 322,
4030, 313, 328, 345, 322,
4032, 314, 329, 344, 323,
4034, 313, 329, 344, 323,
4037, 313, 328, 344, 323,
4039, 313, 329, 344, 322,
4041, 313, 329, 343, 322,
4044, 312, 330, 344, 320,
4046, 313, 329, 344, 322,
4048, 313, 329, 344, 322,
4051, 313, 330, 344, 322,
4054, 312, 329, 344, 322,
4056, 313, 329, 343, 323,
4059, 314, 329, 343, 322,
4061, 313, 329, 342, 322,
4063, 313, 330, 343, 322,
4066, 313, 330, 343, 323,
4068, 313, 330, 343, 323,
4070, 313, 330, 342, 322,
4073, 313, 329, 343, 322,
4075, 312, 330, 342, 321,
4077, 313, 330, 342, 327,
4080, 313, 330, 342, 323,
4082, 313, 330, 341, 322,
4084, 313, 330, 342, 322,
4087, 314, 329, 341, 322,
4089, 314, 329, 340, 323,
4091, 314, 329, 341, 322,
4094, 313, 329, 343, 322,
4097, 313, 329, 340, 322,
4099, 313, 329, 339, 323,
4101, 313, 329, 340, 322,
4104, 313, 329, 340, 322,
4106, 313, 330, 339, 322,
4108, 314, 329, 339, 323,
4111, 314, 333, 338, 324,
4113, 314, 329, 339, 323,
4115, 313, 329, 339, 323,
4118, 314, 330, 338, 322,
4120, 314, 329, 338, 322,
4122, 314, 329, 337, 323,
4125, 314, 330, 338, 323,
4127, 314, 330, 337, 322,
4129, 315, 330, 337, 322,
4132, 314, 330, 336, 324,
4134, 314, 329, 336, 324,
4136, 314, 330, 336, 323,
4140, 314, 329, 335, 323,
4142, 314, 329, 336, 323,
4144, 314, 329, 335, 325,
4147, 314, 329, 335, 324,
4149, 314, 329, 334, 323,
4151, 314, 329, 335, 324,
4154, 313, 330, 335, 324,
4156, 315, 330, 334, 324,
4158, 315, 329, 334, 324,
4161, 314, 329, 335, 323,
4163, 314, 330, 334, 323,
4165, 315, 330, 333, 324,
4168, 316, 329, 334, 323,
4170, 315, 329, 333, 323,
4172, 315, 330, 333, 323,
4175, 316, 330, 333, 324,
4177, 316, 330, 332, 325,
4179, 316, 329, 332, 323,
4183, 316, 330, 332, 324,
4185, 316, 330, 332, 324,
4187, 315, 329, 331, 323,
4189, 316, 330, 332, 324,
4192, 316, 329, 332, 325,
4194, 316, 330, 331, 324,
4196, 317, 330, 330, 325,
4199, 316, 330, 330, 326,
4201, 317, 331, 330, 324,
4203, 317, 330, 330, 325,
4206, 316, 331, 330, 325,
4208, 318, 330, 330, 326,
4210, 317, 329, 330, 325,
4213, 317, 329, 330, 325,
4215, 317, 330, 330, 325,
4217, 317, 329, 329, 325,
4220, 317, 330, 329, 325,
4222, 317, 329, 329, 326,
4225, 317, 329, 329, 326,
4228, 317, 330, 329, 325,
4230, 316, 330, 329, 325,
4232, 318, 330, 328, 326,
4235, 318, 330, 328, 326,
4237, 318, 329, 329, 326,
4239, 318, 329, 328, 326,
4242, 319, 330, 328, 327,
4244, 318, 330, 328, 327,
4246, 318, 330, 328, 326,
4249, 318, 330, 329, 326,
4251, 318, 331, 328, 325,
4253, 318, 330, 328, 331,
4256, 319, 330, 328, 327,
4258, 319, 330, 328, 326,
4260, 319, 330, 328, 326,
4263, 320, 330, 327, 327,
4265, 319, 330, 326, 327,
4268, 320, 330, 327, 327,
4271, 319, 330, 330, 327,
4273, 319, 330, 327, 326,
4275, 319, 330, 327, 327,
4277, 320, 330, 326, 327,
4280, 320, 330, 327, 326,
4282, 320, 330, 327, 327,
4284, 320, 330, 327, 327,
4287, 320, 333, 327, 329,
4289, 320, 329, 327, 328,
4291, 320, 330, 327, 327,
4294, 320, 330, 326, 327,
4296, 320, 330, 326, 326,
4298, 320, 329, 326, 328,
4301, 320, 329, 326, 328,
4303, 319, 329, 326, 327,
4305, 321, 329, 326, 327,
4308, 321, 329, 326, 329,
4311, 321, 329, 326, 328,
4313, 320, 330, 326, 328,
4316, 321, 328, 326, 327,
4318, 322, 330, 326, 329,
4320, 321, 330, 326, 330,
4323, 321, 329, 326, 328,
4325, 321, 329, 326, 328,
4327, 321, 330, 326, 329,
4330, 321, 330, 326, 329,
4332, 321, 331, 326, 329,
4334, 322, 329, 326, 329,
4337, 322, 330, 325, 328,
4339, 322, 329, 325, 328,
4341, 322, 330, 325, 329,
4344, 322, 330, 326, 328,
4346, 322, 329, 326, 328,
4348, 322, 330, 326, 327,
4352, 322, 330, 325, 328,
4354, 322, 330, 325, 329,
4356, 322, 330, 325, 327,
4359, 322, 330, 325, 328,
4361, 322, 331, 324, 328,
4363, 323, 330, 324, 328,
4365, 323, 330, 325, 329,
4368, 323, 330, 325, 329,
4370, 323, 330, 325, 328,
4372, 324, 331, 323, 330,
4375, 323, 330, 324, 330,
4377, 324, 330, 325, 330,
4379, 324, 330, 325, 329,
4382, 323, 331, 325, 329,
4384, 324, 330, 324, 330,
4386, 323, 330, 324, 330,
4389, 323, 329, 324, 330,
4391, 323, 331, 325, 330,
4393, 324, 330, 324, 329,
4397, 324, 331, 324, 331,
4399, 324, 330, 324, 330,
4401, 323, 330, 324, 330,
4404, 323, 331, 325, 330,
4406, 322, 330, 325, 329,
4408, 324, 330, 324, 331,
4411, 324, 331, 324, 330,
4413, 324, 331, 325, 330,
4415, 324, 331, 324, 330,
4418, 325, 331, 325, 331,
4420, 325, 331, 324, 330,
4422, 324, 330, 325, 330,
4425, 325, 330, 325, 330,
4427, 325, 331, 324, 330,
4429, 325, 331, 324, 329,
4432, 324, 330, 324, 330,
4434, 325, 330, 325, 330,
4436, 325, 331, 325, 330,
4440, 325, 330, 325, 331,
4442, 326, 330, 325, 331,
4444, 326, 329, 325, 330,
4447, 327, 329, 328, 330,
4449, 326, 331, 325, 329,
4451, 326, 329, 324, 331,
4453, 326, 329, 324, 330,
4456, 326, 329, 325, 330,
4458, 326, 329, 325, 328,
4460, 326, 330, 325, 330,
4463, 326, 335, 325, 331,
4465, 326, 330, 325, 330,
4467, 327, 330, 324, 330,
4470, 326, 330, 325, 330,
4472, 326, 330, 324, 329,
4474, 326, 330, 324, 330,
4477, 327, 330, 324, 330,
4480, 330, 330, 324, 330,
4482, 326, 331, 324, 330,
4485, 327, 330, 324, 331,
4487, 327, 330, 324, 331,
4489, 327, 331, 325, 330,
4492, 327, 328, 325, 331,
4494, 327, 331, 324, 331,
4496, 327, 330, 324, 331,
4499, 327, 330, 324, 331,
4501, 327, 330, 326, 330,
4503, 327, 330, 324, 331,
4506, 326, 331, 325, 331,
4508, 327, 330, 325, 331,
4510, 327, 330, 324, 331,
4513, 327, 330, 325, 330,
4515, 327, 331, 325, 330,
4517, 328, 330, 325, 331,
4520, 328, 330, 326, 331,
4523, 327, 330, 325, 331,
4525, 328, 330, 325, 330,
4528, 328, 330, 325, 331,
4530, 329, 330, 325, 330,
4532, 328, 330, 325, 331,
4535, 328, 330, 325, 330,
4537, 328, 330, 325, 330,
4539, 328, 330, 324, 332,
4541, 328, 329, 325, 331,
4544, 328, 330, 325, 331,
4546, 328, 330, 325, 330,
4548, 329, 330, 325, 330,
4551, 329, 330, 324, 331,
4553, 329, 330, 325, 331,
4555, 330, 330, 325, 331,
4558, 329, 330, 325, 331,
4560, 329, 330, 324, 331,
4562, 329, 330, 325, 331,
4566, 329, 329, 325, 330,
4568, 329, 330, 325, 330,
4570, 329, 329, 325, 330,
4573, 329, 331, 325, 330,
4575, 329, 329, 325, 331,
4577, 329, 329, 325, 330,
4580, 329, 330, 325, 330,
4582, 329, 329, 325, 330,
4584, 329, 329, 325, 331,
4587, 330, 329, 324, 331,
4589, 329, 329, 325, 330,
4591, 330, 329, 325, 330,
4594, 330, 329, 325, 331,
4596, 330, 329, 325, 331,
4598, 330, 328, 325, 330,
4601, 329, 328, 326, 330,
4603, 330, 330, 325, 331,
4605, 330, 330, 325, 331,
4609, 330, 329, 324, 331,
4611, 330, 329, 324, 331,
4613, 330, 330, 324, 330,
4616, 330, 329, 324, 331,
4618, 330, 329, 325, 331,
4620, 330, 329, 325, 331,
4622, 330, 329, 327, 331,
4625, 330, 330, 325, 330,
4627, 330, 329, 324, 331,
4629, 330, 328, 324, 331,
4632, 330, 329, 325, 330,
4634, 331, 329, 325, 329,
4636, 331, 329, 324, 331,
4639, 331, 333, 325, 330,
4641, 330, 329, 325, 330,
4643, 330, 329, 324, 330,
4646, 330, 329, 324, 330,
4648, 330, 329, 324, 330,
4651, 330, 328, 324, 331,
4654, 331, 329, 324, 330,
4656, 332, 329, 325, 330,
4658, 331, 329, 325, 329,
4661, 331, 329, 325, 331,
4663, 331, 328, 324, 331,
4665, 331, 328, 325, 330,
4668, 331, 328, 326, 330,
4670, 332, 328, 325, 331,
4672, 331, 328, 325, 331,
4675, 331, 327, 325, 330,
4677, 331, 328, 326, 330,
4679, 332, 328, 325, 331,
4682, 331, 328, 325, 331,
4684, 330, 328, 326, 330,
4686, 332, 328, 324, 330,
4689, 331, 329, 325, 330,
4691, 331, 329, 325, 330,
4694, 332, 328, 325, 331,
4697, 332, 328, 325, 330,
4699, 332, 327, 325, 330,
4701, 332, 328, 326, 330,
4704, 332, 328, 324, 330,
4706, 332, 328, 325, 331,
4708, 332, 328, 326, 333,
4710, 331, 328, 326, 330,
4713, 332, 328, 325, 330,
4715, 332, 328, 325, 331,
4717, 331, 328, 325, 330,
4720, 332, 328, 326, 330,
4722, 332, 328, 326, 330,
4724, 332, 328, 325, 331,
4727, 332, 328, 326, 331,
4729, 333, 328, 326, 331,
4731, 333, 328, 326, 330,
4734, 332, 329, 326, 330,
4737, 333, 328, 326, 331,
4739, 332, 328, 325, 331,
4742, 332, 328, 326, 330,
4744, 332, 328, 326, 330,
4746, 332, 328, 325, 331,
4749, 332, 328, 326, 330,
4751, 333, 328, 325, 330,
4753, 332, 329, 326, 332,
4756, 332, 329, 326, 330,
4758, 330, 329, 326, 329,
4760, 332, 327, 326, 331,
4763, 332, 329, 325, 330,
4765, 332, 329, 326, 330,
4767, 332, 330, 326, 330,
4770, 333, 329, 326, 330,
4772, 332, 329, 326, 331,
4774, 333, 329, 326, 330,
4777, 332, 328, 327, 330,
4780, 332, 329, 326, 331,
4782, 332, 329, 326, 331,
4785, 332, 329, 325, 330,
4787, 332, 330, 326, 330,
4789, 332, 329, 326, 330,
4792, 332, 329, 326, 331,
4794, 333, 329, 326, 331,
4796, 332, 328, 325, 330,
4798, 333, 329, 326, 330,
4801, 332, 330, 326, 330,
4803, 332, 328, 325, 331,
4805, 332, 329, 326, 330,
4808, 332, 329, 326, 331,
4810, 332, 329, 326, 329,
4812, 332, 329, 326, 331,
4815, 333, 333, 326, 331,
4817, 332, 329, 326, 330,
4819, 332, 329, 326, 330,
4823, 332, 329, 326, 330,
4825, 332, 329, 326, 332,
4827, 332, 329, 325, 331,
4830, 332, 329, 325, 331,
4832, 333, 329, 326, 330,
4834, 333, 329, 326, 330,
4837, 333, 329, 326, 331,
4839, 333, 329, 326, 331,
4841, 332, 329, 326, 330,
4844, 332, 329, 326, 330,
4846, 332, 329, 326, 331,
4848, 332, 329, 326, 331,
4851, 331, 329, 327, 330,
4853, 331, 329, 327, 331,
4855, 332, 330, 326, 331,
4858, 332, 330, 326, 331,
4860, 331, 330, 326, 331,
4862, 332, 330, 325, 330,
4866, 333, 330, 326, 330,
4868, 332, 330, 326, 330,
4870, 333, 329, 326, 331,
4873, 333, 328, 327, 331,
4875, 332, 329, 327, 330,
4877, 334, 329, 327, 330,
4880, 332, 329, 327, 330,
4882, 333, 329, 326, 331,
4884, 332, 329, 327, 334,
4886, 332, 329, 327, 329,
4889, 332, 329, 327, 331,
4891, 333, 327, 327, 331,
4893, 333, 327, 328, 330,
4896, 333, 327, 329, 330,
4898, 332, 327, 328, 329,
4900, 333, 328, 331, 330,
4903, 333, 329, 328, 330,
4905, 333, 329, 328, 330,
4908, 333, 330, 328, 330,
4911, 332, 330, 328, 330,
4913, 333, 329, 327, 331,
4915, 332, 329, 327, 330,
4918, 332, 334, 329, 330,
4920, 333, 330, 328, 330,
4922, 333, 330, 328, 331,
4925, 333, 331, 329, 331,
4927, 333, 330, 329, 330,
4929, 332, 330, 330, 330,
4932, 333, 331, 330, 329,
4934, 332, 330, 330, 330,
4936, 333, 329, 331, 330,
4939, 333, 330, 330, 330,
4941, 333, 330, 332, 330,
4943, 332, 329, 332, 329,
4946, 333, 329, 331, 330,
4948, 333, 329, 331, 330,
4951, 333, 329, 332, 330,
4954, 332, 329, 332, 330,
4956, 333, 330, 332, 329,
4958, 333, 330, 332, 330,
4961, 333, 330, 333, 329,
4963, 333, 330, 333, 329,
4965, 333, 331, 333, 329,
4968, 334, 330, 333, 329,
4970, 333, 330, 333, 329,
4972, 333, 330, 334, 329,
4974, 333, 330, 334, 330,
4977, 333, 331, 335, 328,
4979, 333, 330, 335, 329,
4981, 333, 329, 335, 329,
4984, 334, 328, 335, 329,
4986, 334, 329, 335, 327,
4988, 334, 329, 335, 330,
4992, 334, 330, 335, 330,
4994, 333, 330, 336, 329,
4996, 332, 329, 336, 329,
4999, 332, 330, 336, 329,
5001, 332, 329, 336, 330,
5003, 332, 328, 337, 330,
5006, 333, 328, 336, 329,
5008, 333, 329, 337, 328,
5010, 333, 329, 337, 327,
5013, 333, 329, 338, 329,
5015, 334, 329, 337, 329,
5017, 334, 330, 337, 329,
5020, 334, 329, 338, 329,
5022, 335, 329, 338, 329,
5024, 335, 328, 338, 329,
5027, 335, 329, 339, 329,
5029, 334, 328, 340, 328,
5031, 335, 331, 339, 329,
5035, 335, 330, 339, 329,
5037, 334, 330, 338, 329,
5039, 335, 330, 338, 329,
5042, 335, 331, 338, 328,
5044, 334, 331, 338, 328,
5046, 335, 331, 338, 329,
5049, 335, 330, 338, 329,
5051, 334, 332, 338, 328,
5053, 334, 332, 339, 328,
5056, 334, 330, 339, 329,
5058, 335, 330, 340, 329,
5060, 334, 331, 341, 331,
5062, 335, 331, 341, 328,
5065, 335, 330, 339, 329,
5067, 335, 330, 340, 329,
5069, 335, 329, 339, 328,
5072, 336, 328, 340, 328,
5074, 335, 328, 340, 327,
5076, 336, 328, 343, 327,
5080, 335, 328, 341, 328,
5082, 336, 329, 341, 327,
5084, 336, 330, 340, 328,
5087, 335, 330, 340, 327,
5089, 336, 329, 338, 328,
5091, 337, 329, 340, 328,
5094, 337, 333, 340, 327,
5096, 336, 330, 340, 327,
5098, 337, 330, 340, 328,
5101, 336, 330, 339, 328,
5103, 336, 330, 338, 327,
5105, 336, 330, 339, 328,
5108, 337, 331, 338, 326,
5110, 341, 330, 338, 328,
5112, 338, 329, 339, 327,
5115, 338, 330, 337, 327,
5117, 337, 331, 338, 326,
5120, 337, 331, 338, 326,
5123, 337, 330, 338, 326,
5125, 337, 330, 338, 327,
5127, 337, 330, 338, 326,
5130, 336, 331, 338, 327,
5132, 338, 329, 337, 327,
5134, 338, 329, 339, 327,
5137, 338, 329, 340, 326,
5139, 339, 329, 340, 326,
5141, 339, 330, 340, 326,
5144, 339, 329, 340, 325,
5146, 338, 329, 339, 326,
5148, 338, 328, 338, 326,
5150, 339, 328, 338, 325,
5153, 338, 328, 337, 324,
5155, 339, 327, 337, 325,
5157, 339, 328, 337, 325,
5160, 339, 329, 337, 324,
5163, 339, 329, 337, 324,
5165, 340, 329, 336, 325,
5168, 340, 330, 337, 325,
5170, 340, 330, 337, 325,
5172, 340, 330, 337, 325,
5175, 341, 331, 336, 326,
5177, 340, 330, 336, 327,
5179, 339, 330, 335, 325,
5182, 339, 330, 335, 325,
5184, 339, 330, 335, 325,
5186, 340, 330, 334, 325,
5189, 341, 330, 334, 326,
5191, 341, 330, 334, 326,
5193, 341, 329, 335, 326,
5196, 340, 329, 334, 327,
5198, 341, 328, 335, 328,
5200, 342, 328, 334, 327,
5203, 340, 328, 335, 327,
5206, 340, 327, 336, 327,
5208, 341, 329, 334, 329,
5211, 341, 328, 334, 328,
5213, 341, 327, 334, 328,
5215, 341, 327, 334, 327,
5218, 340, 327, 333, 327,
5220, 340, 327, 333, 327,
5222, 340, 328, 332, 327,
5225, 340, 328, 333, 327,
5227, 339, 330, 332, 326,
5229, 340, 329, 332, 328,
5231, 340, 329, 332, 327,
5234, 339, 329, 332, 327,
5236, 339, 330, 332, 329,
5238, 340, 330, 332, 328,
5241, 340, 332, 332, 327,
5243, 340, 330, 332, 326,
5245, 339, 330, 332, 327,
5249, 339, 330, 331, 327,
5251, 339, 330, 329, 327,
5253, 339, 330, 330, 327,
5256, 338, 330, 329, 327,
5258, 339, 330, 329, 328,
5260, 339, 330, 329, 327,
5263, 338, 330, 329, 327,
5265, 339, 329, 329, 328,
5267, 339, 329, 330, 328,
5270, 339, 330, 330, 327,
5272, 338, 329, 330, 327,
5274, 339, 329, 329, 328,
5277, 339, 330, 330, 328,
5279, 339, 328, 330, 328,
5281, 338, 327, 329, 327,
5284, 339, 325, 327, 328,
5286, 342, 324, 327, 328,
5288, 339, 324, 328, 327,
5292, 338, 326, 328, 326,
5294, 338, 327, 330, 327,
5296, 338, 329, 330, 326,
5299, 338, 328, 329, 328,
5301, 338, 329, 329, 327,
5303, 338, 329, 329, 327,
5306, 338, 330, 329, 327,
5308, 338, 329, 328, 326,
5310, 338, 329, 328, 327,
5313, 337, 329, 328, 327,
5315, 337, 330, 328, 327,
5317, 338, 329, 328, 328,
5319, 337, 328, 328, 327,
5322, 337, 329, 328, 328,
5324, 338, 329, 328, 328,
5326, 337, 329, 328, 328,
5329, 337, 329, 328, 326,
5331, 337, 329, 328, 328,
5334, 337, 328, 329, 327,
5337, 336, 328, 329, 327,
5339, 336, 327, 329, 326,
5341, 337, 325, 328, 327,
5344, 337, 324, 328, 327,
5346, 337, 323, 329, 327,
5348, 336, 323, 329, 326,
5351, 337, 324, 329, 327,
5353, 336, 325, 328, 327,
5355, 336, 327, 331, 326,
5358, 336, 327, 330, 326,
5360, 335, 328, 329, 326,
5362, 335, 329, 330, 327,
5365, 335, 329, 329, 327,
5367, 335, 329, 329, 326,
5369, 335, 329, 329, 326,
5372, 334, 327, 329, 327,
5374, 335, 329, 329, 327,
5377, 335, 329, 329, 326,
5380, 335, 329, 330, 326,
5382, 334, 330, 330, 326,
5384, 335, 329, 329, 326,
5387, 335, 329, 329, 326,
5389, 334, 328, 329, 326,
5391, 334, 329, 330, 326,
5394, 333, 330, 328, 325,
5396, 334, 329, 327, 327,
5398, 333, 328, 327, 326,
5401, 332, 328, 326, 327,
5403, 332, 328, 328, 326,
5405, 333, 326, 328, 326,
5407, 332, 327, 328, 326,
5410, 332, 327, 329, 326,
5412, 331, 327, 329, 327,
5414, 332, 325, 328, 327,
5417, 332, 321, 328, 326,
5420, 332, 320, 327, 326,
5422, 330, 324, 329, 325,
5425, 330, 325, 331, 325,
5427, 329, 327, 330, 326,
5429, 329, 328, 330, 326,
5432, 328, 328, 330, 326,
5434, 328, 329, 330, 326,
5436, 327, 329, 330, 326,
5439, 327, 329, 330, 325,
5441, 328, 329, 330, 325,
5443, 327, 329, 330, 326,
5446, 326, 330, 330, 327,
5448, 326, 330, 330, 325,
5450, 326, 330, 330, 327,
5453, 326, 329, 330, 326,
5455, 325, 329, 330, 326,
5457, 325, 329, 329, 326,
5460, 326, 329, 331, 327,
5463, 328, 329, 330, 327,
5465, 324, 328, 330, 326,
5468, 324, 328, 330, 326,
5470, 323, 329, 329, 326,
5472, 323, 329, 329, 325,
5475, 323, 328, 329, 326,
5477, 323, 328, 330, 326,
5479, 323, 329, 330, 326,
5482, 323, 329, 330, 327,
5484, 323, 329, 329, 327,
5486, 322, 328, 330, 327,
5489, 321, 328, 329, 326,
5491, 320, 327, 330, 327,
5493, 322, 327, 330, 328,
5495, 321, 328, 330, 327,
5498, 321, 327, 331, 327,
5500, 321, 328, 331, 327,
5502, 320, 328, 330, 327,
5506, 320, 329, 330, 328,
5508, 320, 329, 331, 328,
5510, 320, 327, 331, 327,
5513, 319, 328, 330, 327,
5515, 319, 328, 330, 327,
5517, 319, 326, 329, 328,
5520, 319, 327, 328, 328,
5522, 319, 327, 329, 327,
5524, 319, 328, 329, 327,
5527, 319, 329, 329, 328,
5529, 318, 329, 329, 328,
5531, 318, 330, 332, 328,
5534, 318, 329, 330, 328,
5536, 319, 329, 328, 329,
5538, 319, 329, 328, 329,
5541, 319, 329, 328, 329,
5543, 319, 329, 328, 328,
5545, 319, 329, 329, 328,
5549, 319, 331, 330, 328,
5551, 319, 329, 328, 329,
5553, 319, 329, 328, 329,
5556, 318, 328, 329, 328,
5558, 319, 330, 329, 328,
5560, 320, 330, 328, 330,
5563, 320, 329, 328, 329,
5565, 319, 329, 329, 329,
5567, 320, 329, 330, 329,
5570, 320, 329, 328, 329,
5572, 320, 329, 328, 331,
5574, 320, 329, 328, 329,
5577, 320, 330, 330, 328,
5579, 320, 330, 329, 329,
5581, 321, 329, 329, 328,
5583, 320, 329, 329, 329,
5586, 321, 329, 329, 329,
5588, 320, 329, 329, 330,
5591, 321, 329, 329, 330,
5594, 321, 329, 329, 330,
5596, 321, 329, 329, 330,
5598, 321, 330, 329, 328,
5601, 321, 328, 330, 327,
5603, 320, 329, 329, 328,
5605, 321, 329, 330, 329,
5608, 321, 329, 329, 329,
5610, 322, 330, 330, 329,
5612, 322, 329, 330, 329,
5615, 321, 330, 330, 328,
5617, 321, 329, 331, 329,
5619, 322, 329, 331, 330,
5622, 322, 330, 331, 329,
5624, 322, 330, 331, 330,
5626, 322, 329, 331, 331,
5629, 323, 329, 331, 331,
5632, 323, 329, 332, 331,
5634, 323, 330, 331, 330,
5637, 324, 330, 332, 332,
5639, 324, 330, 332, 332,
5641, 323, 329, 332, 331,
5644, 323, 329, 334, 331,
5646, 324, 330, 333, 331,
5648, 324, 330, 333, 332,
5651, 325, 328, 333, 332,
5653, 325, 330, 333, 331,
5655, 325, 330, 334, 331,
5658, 325, 330, 334, 332,
5660, 325, 331, 334, 332,
5662, 325, 330, 334, 331,
5665, 326, 330, 334, 330,
5667, 325, 329, 335, 331,
5669, 327, 329, 334, 332,
5671, 326, 329, 334, 332,
5675, 327, 329, 335, 332,
5677, 326, 330, 335, 331,
5679, 327, 330, 335, 332,
5682, 327, 330, 335, 333,
5684, 327, 330, 336, 332,
5686, 327, 330, 336, 332,
5689, 328, 330, 336, 331,
5691, 328, 330, 336, 337,
5693, 328, 330, 336, 332,
5696, 329, 330, 336, 332,
5698, 329, 330, 337, 332,
5700, 329, 330, 337, 332,
5703, 330, 330, 337, 333,
5705, 330, 330, 336, 333,
5707, 329, 330, 337, 333,
5710, 329, 329, 338, 332,
5712, 330, 329, 338, 332,
5714, 330, 330, 338, 334,
5718, 330, 329, 338, 332,
5720, 330, 329, 337, 333,
5722, 331, 329, 338, 332,
5725, 331, 329, 339, 332,
5727, 331, 330, 338, 333,
5729, 331, 330, 338, 333,
5732, 331, 330, 339, 332,
5734, 331, 330, 338, 332,
5736, 331, 330, 338, 333,
5739, 332, 330, 338, 333,
5741, 335, 330, 338, 333,
5743, 331, 329, 339, 332,
5746, 331, 329, 338, 333,
5748, 332, 330, 338, 334,
5750, 332, 329, 339, 333,
5753, 332, 330, 339, 332,
5755, 332, 330, 339, 333,
5757, 333, 330, 339, 332,
5760, 332, 329, 339, 333,
5763, 332, 329, 339, 333,
5765, 332, 329, 339, 333,
5767, 333, 329, 339, 332,
5770, 333, 329, 339, 334,
5772, 333, 329, 339, 333,
5774, 334, 330, 339, 333,
5777, 333, 328, 339, 333,
5779, 333, 329, 339, 334,
5781, 334, 329, 340, 333,
5784, 333, 329, 339, 333,
5786, 334, 329, 340, 331,
5788, 334, 329, 340, 332,
5791, 334, 329, 340, 334,
5793, 334, 329, 340, 331,
5795, 334, 328, 340, 333,
5798, 334, 330, 340, 332,
5800, 334, 330, 341, 332,
5803, 334, 329, 339, 334,
5806, 334, 329, 340, 333,
5808, 334, 328, 340, 333,
5810, 334, 330, 340, 336,
5813, 335, 329, 341, 334,
5815, 335, 330, 341, 334,
5817, 335, 329, 341, 333,
5820, 335, 329, 342, 333,
5822, 335, 329, 341, 332,
5824, 335, 329, 341, 335,
5827, 335, 329, 341, 333,
5829, 335, 329, 341, 333,
5831, 335, 328, 341, 332,
5834, 335, 329, 341, 333,
5836, 335, 329, 341, 334,
5838, 335, 329, 341, 333,
5840, 336, 329, 342, 333,
5843, 335, 328, 341, 333,
5846, 336, 328, 341, 334,
5848, 335, 328, 341, 333,
5851, 335, 328, 342, 333,
5853, 336, 328, 342, 334,
5855, 336, 329, 342, 333,
5858, 335, 329, 342, 335,
5860, 336, 328, 342, 334,
5862, 335, 329, 342, 333,
5865, 336, 329, 342, 333,
5867, 336, 329, 342, 338,
5869, 336, 329, 343, 334,
5872, 336, 329, 343, 333,
5874, 336, 329, 342, 334,
5876, 336, 329, 342, 333,
5879, 336, 329, 342, 334,
5881, 336, 328, 342, 334,
5883, 336, 329, 347, 334,
5886, 336, 328, 343, 334,
5889, 336, 330, 343, 335,
5891, 336, 328, 342, 335,
5894, 336, 329, 342, 334,
5896, 336, 329, 343, 333,
5898, 336, 329, 342, 334,
5901, 335, 333, 342, 334,
5903, 336, 328, 342, 334,
5905, 336, 329, 342, 334,
5908, 336, 329, 343, 334,
5910, 336, 330, 342, 333,
5912, 337, 329, 342, 334,
5915, 336, 329, 342, 334,
5917, 339, 329, 341, 334,
5919, 336, 328, 342, 334,
5922, 337, 329, 341, 334,
5924, 336, 329, 341, 335,
5926, 336, 330, 341, 334,
5928, 336, 328, 343, 334,
5932, 336, 330, 341, 333,
5934, 336, 329, 341, 334,
5936, 336, 329, 341, 334,
5939, 336, 329, 342, 333,
5941, 336, 329, 341, 334,
5943, 336, 330, 341, 333,
5946, 336, 329, 340, 334,
5948, 336, 329, 341, 334,
5950, 335, 328, 341, 333,
5953, 335, 330, 341, 333,
5955, 335, 329, 340, 334,
5957, 336, 329, 341, 333,
5960, 336, 329, 341, 333,
5962, 336, 329, 341, 333,
5964, 336, 329, 340, 332,
5967, 336, 330, 341, 334,
5969, 336, 329, 341, 333,
5971, 335, 329, 341, 333,
5975, 335, 330, 340, 332,
5977, 335, 330, 340, 332,
5979, 335, 329, 340, 333,
5982, 335, 330, 340, 333,
5984, 335, 329, 341, 333,
5986, 335, 331, 340, 332,
5989, 336, 330, 340, 333,
5991, 335, 330, 339, 333,
5993, 335, 329, 340, 333,
5996, 335, 329, 341, 332,
5998, 334, 330, 339, 333,
6000, 335, 329, 340, 334,
6003, 335, 329, 340, 332,
6005, 335, 329, 340, 333,
6007, 335, 329, 340, 332,
6010, 335, 328, 339, 333,
6012, 335, 329, 339, 333,
6014, 335, 328, 340, 333,
6017, 335, 329, 339, 333,
6020, 334, 329, 338, 332,
6022, 335, 328, 339, 334,
6024, 334, 328, 338, 333,
6027, 334, 328, 339, 333,
6029, 334, 329, 339, 333,
6031, 335, 329, 339, 333,
6034, 334, 329, 338, 334,
6036, 334, 329, 338, 333,
6038, 334, 329, 339, 333,
6041, 334, 329, 338, 332,
6043, 333, 329, 338, 334,
6045, 334, 329, 338, 333,
6048, 334, 329, 338, 333,
6050, 334, 329, 338, 333,
6052, 334, 329, 338, 333,
6055, 334, 329, 338, 334,
6057, 334, 329, 338, 333,
6060, 334, 329, 338, 333,
6063, 333, 328, 339, 333,
6065, 334, 329, 338, 334,
6067, 334, 329, 338, 334,
6070, 334, 329, 337, 333,
6072, 334, 329, 339, 332,
6074, 334, 330, 338, 333,
6077, 333, 330, 337, 333,
6079, 334, 329, 337, 333,
6081, 333, 329, 338, 332,
6084, 333, 330, 338, 332,
6086, 333, 330, 337, 332,
6088, 334, 329, 336, 333,
6091, 333, 328, 337, 333,
6093, 335, 329, 337, 332,
6095, 333, 329, 337, 332,
6098, 333, 329, 337, 333,
6100, 333, 329, 337, 334,
6103, 333, 329, 337, 333,
6105, 333, 328, 337, 332,
6108, 333, 329, 337, 332,
6110, 333, 329, 337, 334,
6112, 333, 328, 337, 332,
6115, 333, 329, 337, 333,
6117, 333, 329, 337, 333,
6119, 333, 329, 337, 332,
6122, 332, 329, 336, 333,
6124, 333, 328, 337, 333,
6126, 333, 328, 337, 332,
6129, 332, 330, 337, 332,
6131, 333, 329, 336, 332,
6133, 333, 328, 337, 333,
6136, 333, 329, 337, 333,
6138, 333, 329, 337, 332,
6140, 333, 329, 336, 333,
6144, 332, 329, 337, 334,
6146, 333, 329, 336, 335,
6148, 332, 329, 337, 333,
6151, 332, 328, 336, 332,
6153, 332, 329, 337, 331,
6155, 332, 329, 336, 333,
6158, 333, 329, 337, 332,
6160, 332, 329, 337, 332,
6162, 332, 330, 339, 332,
6165, 332, 329, 336, 333,
6167, 332, 328, 336, 333,
6169, 332, 328, 337, 332,
6172, 332, 329, 335, 332,
6174, 332, 329, 336, 333,
6176, 332, 329, 336, 333,
6179, 332, 329, 336, 332,
6181, 332, 328, 337, 331,
6183, 332, 328, 336, 332,
6187, 332, 328, 336, 332,
6189, 332, 328, 337, 332,
6191, 332, 328, 337, 332,
6193, 332, 328, 336, 333,
6196, 331, 328, 336, 331,
6198, 332, 328, 336, 332,
6200, 332, 328, 336, 331,
6203, 332, 328, 336, 331,
6205, 332, 328, 336, 331,
6207, 332, 328, 336, 332,
6210, 332, 328, 336, 332,
6212, 332, 328, 336, 332,
6214, 331, 329, 336, 331,
6217, 332, 329, 336, 331,
6219, 331, 328, 336, 332,
6221, 332, 328, 336, 332,
6224, 331, 328, 336, 332,
6226, 331, 328, 336, 331,
6228, 332, 328, 336, 331,
6232, 332, 328, 335, 332,
6234, 332, 328, 336, 332,
6236, 333, 328, 336, 332,
6239, 332, 328, 336, 331,
6241, 331, 329, 335, 333,
6243, 331, 328, 335, 332,
6246, 332, 328, 335, 332,
6248, 331, 327, 336, 331,
6250, 332, 329, 336, 332,
6253, 332, 329, 335, 332,
6255, 332, 328, 335, 332,
6257, 332, 328, 335, 332,
6260, 331, 328, 336, 332,
6262, 331, 329, 335, 331,
6264, 332, 328, 334, 332,
6267, 332, 327, 335, 332,
6269, 333, 328, 335, 331,
6272, 332, 329, 336, 331,
6275, 331, 328, 335, 332,
6277, 332, 328, 335, 332,
6279, 332, 328, 335, 332,
6281, 331, 327, 335, 331,
6284, 331, 329, 335, 332,
6286, 332, 328, 335, 332,
6288, 332, 327, 335, 331,
6291, 332, 327, 335, 331,
6293, 330, 328, 335, 331,
6295, 332, 328, 335, 330,
6298, 332, 328, 335, 331,
6300, 332, 328, 334, 331,
6302, 331, 328, 335, 331,
6305, 331, 329, 335, 331,
6307, 332, 328, 334, 332,
6309, 331, 328, 334, 331,
6312, 331, 328, 334, 331,
6315, 331, 328, 334, 331,
6317, 332, 328, 334, 331,
6320, 331, 328, 334, 332,
6322, 331, 328, 333, 333,
6324, 331, 329, 334, 331,
6327, 331, 329, 334, 330,
6329, 331, 329, 334, 330,
6331, 331, 328, 334, 330,
6334, 332, 329, 334, 330,
6336, 332, 330, 334, 330,
6338, 332, 330, 337, 331,
6341, 332, 329, 334, 331,
6343, 332, 329, 333, 330,
6345, 331, 328, 334, 331,
6348, 332, 328, 334, 331,
6350, 332, 329, 333, 331,
6352, 332, 329, 333, 332,
6355, 331, 333, 333, 331,
6358, 331, 329, 333, 331,
6360, 331, 329, 333, 330,
6363, 331, 329, 332, 332,
6365, 332, 329, 333, 331,
6367, 331, 329, 333, 331,
6369, 332, 329, 333, 331,
6372, 331, 329, 332, 330,
6374, 332, 329, 332, 331,
6376, 331, 329, 332, 331,
6379, 331, 329, 332, 330,
6381, 331, 329, 332, 331,
6383, 332, 330, 332, 331,
6386, 332, 330, 332, 331,
6388, 331, 330, 332, 331,
6390, 330, 330, 332, 331,
6393, 331, 330, 332, 330,
6395, 331, 329, 332, 331,
6397, 331, 328, 332, 331,
6401, 331, 330, 332, 330,
6403, 331, 330, 332, 330,
6405, 331, 330, 332, 330,
6408, 332, 329, 332, 331,
6410, 332, 329, 332, 331,
6412, 332, 330, 332, 331,
6415, 332, 330, 332, 330,
6417, 331, 330, 332, 331,
6419, 331, 329, 332, 331,
6422, 331, 329, 332, 330,
6424, 331, 329, 333, 329,
6426, 331, 330, 332, 330,
6429, 331, 330, 332, 330,
6431, 331, 330, 332, 329,
6433, 332, 329, 332, 328,
6436, 331, 330, 332, 327,
6438, 330, 330, 331, 327,
6440, 331, 329, 331, 328,
6444, 331, 328, 332, 329,
6446, 332, 329, 331, 330,
6448, 332, 329, 331, 330,
6450, 332, 329, 331, 330,
6453, 332, 329, 331, 331,
6455, 331, 329, 332, 330,
6457, 331, 328, 332, 330,
6460, 331, 330, 331, 330,
6462, 332, 330, 331, 330,
6464, 331, 330, 331, 331,
6467, 331, 329, 332, 330,
6469, 331, 329, 331, 331,
6471, 332, 329, 331, 330,
6474, 332, 330, 332, 331,
6476, 331, 329, 332, 331,
6478, 332, 329, 331, 330,
6481, 331, 330, 332, 330,
6483, 332, 329, 331, 331,
6486, 331, 329, 332, 330,
6489, 331, 329, 332, 330,
6491, 332, 329, 332, 330,
6493, 331, 329, 331, 331,
6496, 331, 329, 331, 331,
6498, 331, 329, 331, 333,
6500, 330, 330, 332, 329,
6503, 331, 329, 331, 330,
6505, 330, 329, 331, 331,
6507, 331, 328, 332, 330,
6510, 331, 329, 331, 330,
6512, 331, 330, 332, 330,
6514, 331, 330, 335, 331,
6517, 332, 329, 331, 331,
6519, 332, 329, 332, 329,
6521, 331, 328, 332, 330,
6524, 332, 329, 331, 330,
6526, 332, 329, 331, 330,
6529, 332, 329, 331, 331,
6532, 331, 333, 331, 330,
6534, 332, 329, 331, 330,
6536, 331, 329, 331, 330,
6538, 332, 329, 331, 331,
6541, 332, 329, 332, 331,
6543, 332, 329, 330, 330,
6545, 332, 329, 331, 331,
6548, 335, 329, 331, 330,
6550, 332, 329, 331, 331,
6552, 331, 328, 332, 330,
6555, 331, 328, 331, 330,
6557, 332, 329, 331, 329,
6559, 332, 329, 331, 328,
6562, 331, 329, 330, 328,
6564, 332, 329, 330, 328,
6566, 331, 329, 331, 328,
6569, 332, 329, 330, 329,
6572, 332, 328, 330, 330,
6574, 332, 328, 330, 331,
6577, 332, 329, 331, 330,
6579, 332, 329, 331, 330,
6581, 332, 329, 330, 329,
6584, 332, 329, 330, 331,
6586, 332, 328, 330, 331,
6588, 332, 329, 330, 331,
6591, 332, 330, 331, 332,
6593, 332, 329, 331, 332,
6595, 333, 329, 330, 332,
6598, 332, 329, 331, 332,
6600, 332, 328, 331, 332,
6602, 332, 329, 330, 332,
6605, 333, 329, 330, 332,
6607, 333, 329, 331, 331,
6609, 332, 328, 331, 332,
6612, 332, 329, 330, 331,
6615, 332, 329, 330, 331,
6617, 333, 329, 329, 332,
6620, 332, 328, 330, 331,
6622, 333, 330, 330, 332,
6624, 332, 329, 330, 331,
6626, 333, 329, 330, 332,
6629, 333, 329, 330, 332,
6631, 332, 329, 330, 331,
6633, 333, 329, 330, 332,
6636, 333, 330, 329, 333,
6638, 333, 329, 329, 332,
6640, 332, 330, 329, 331,
6643, 333, 329, 330, 331,
6645, 333, 329, 329, 330,
6647, 333, 329, 329, 330,
6650, 331, 329, 329, 328,
6652, 333, 328, 329, 329,
6654, 333, 329, 329, 330,
6658, 334, 330, 329, 330,
6660, 334, 329, 328, 332,
6662, 333, 328, 329, 331,
6665, 334, 328, 330, 331,
6667, 334, 330, 330, 331,
6669, 334, 329, 329, 331,
6672, 334, 329, 329, 332,
6674, 334, 329, 330, 334,
6676, 333, 329, 330, 332,
6679, 334, 330, 330, 332,
6681, 334, 329, 329, 334,
6683, 333, 330, 329, 333,
6686, 333, 329, 328, 332,
6688, 333, 330, 330, 332,
6690, 333, 330, 334, 331,
6693, 334, 329, 329, 333,
6695, 334, 329, 330, 332,
6697, 334, 329, 330, 332,
6701, 334, 329, 329, 333,
6703, 335, 329, 329, 331,
6705, 335, 329, 329, 332,
6708, 333, 333, 331, 332,
6710, 334, 329, 329, 332,
6712, 334, 329, 329, 333,
6714, 334, 329, 329, 333,
6717, 334, 329, 329, 332,
6719, 334, 329, 328, 332,
6721, 334, 329, 329, 332,
6724, 337, 329, 328, 332,
6726, 334, 329, 329, 331,
6728, 334, 329, 329, 330,
6731, 334, 329, 329, 330,
6733, 334, 329, 329, 330,
6735, 335, 328, 328, 332,
6738, 335, 329, 328, 332,
6740, 335, 329, 328, 332,
6743, 335, 329, 329, 332,
6746, 335, 330, 328, 334,
6748, 335, 329, 328, 333,
6750, 334, 329, 328, 333,
6753, 334, 329, 328, 334,
6755, 334, 330, 328, 334,
6757, 335, 330, 328, 333,
6760, 335, 330, 328, 334,
6762, 335, 330, 327, 334,
6764, 335, 330, 328, 334,
6767, 335, 330, 328, 335,
6769, 335, 330, 328, 334,
6771, 335, 330, 327, 335,
6774, 334, 329, 328, 334,
6776, 334, 329, 328, 334,
6778, 335, 331, 327, 335,
6781, 334, 331, 327, 334,
6784, 334, 330, 327, 334,
6786, 334, 330, 328, 334,
6789, 335, 330, 327, 334,
6791, 335, 330, 326, 335,
6793, 336, 330, 326, 334,
6796, 334, 330, 327, 333,
6798, 335, 330, 327, 333,
6800, 334, 330, 326, 333,
6802, 335, 330, 326, 333,
6805, 335, 330, 326, 334,
6807, 335, 330, 326, 334,
6809, 334, 330, 326, 335,
6812, 334, 331, 326, 334,
6814, 334, 330, 326, 335,
6816, 334, 330, 325, 335,
6819, 335, 330, 326, 335,
6821, 334, 330, 325, 335,
6823, 334, 330, 325, 336,
6827, 334, 331, 325, 334,
6829, 335, 330, 325, 333,
6831, 334, 330, 325, 333,
6834, 334, 330, 325, 334,
6836, 335, 329, 325, 335,
6838, 335, 330, 325, 335,
6841, 334, 329, 325, 335,
6843, 335, 330, 325, 335,
6845, 335, 330, 324, 336,
6848, 335, 330, 324, 336,
6850, 334, 329, 324, 336,
6852, 333, 330, 324, 336,
6855, 334, 330, 324, 335,
6857, 334, 330, 323, 337,
6859, 333, 330, 323, 336,
6862, 333, 329, 322, 335,
6864, 333, 330, 323, 335,
6866, 332, 329, 327, 335,
6870, 333, 330, 322, 336,
6872, 333, 331, 322, 336,
6874, 333, 330, 322, 335,
6877, 332, 330, 322, 335,
6879, 333, 330, 321, 336,
6881, 333, 330, 321, 335,
6884, 333, 330, 321, 335,
6886, 333, 329, 321, 335,
6888, 333, 330, 320, 335,
6890, 333, 329, 319, 336,
6893, 333, 330, 320, 336,
6895, 333, 330, 320, 335,
6897, 333, 330, 319, 335,
6900, 333, 330, 319, 332,
6902, 332, 330, 317, 335,
6904, 332, 329, 318, 335,
6907, 332, 330, 318, 335,
6909, 332, 330, 317, 334,
6912, 332, 328, 317, 335,
6915, 332, 329, 317, 335,
6917, 332, 329, 317, 335,
6919, 331, 329, 316, 335,
6922, 332, 330, 315, 336,
6924, 332, 329, 315, 335,
6926, 332, 330, 316, 335,
6929, 330, 329, 316, 334,
6931, 332, 329, 315, 332,
6933, 332, 329, 314, 333,
6936, 332, 329, 314, 333,
6938, 332, 329, 313, 333,
6940, 332, 329, 316, 333,
6943, 332, 329, 313, 334,
6945, 333, 329, 312, 335,
6947, 332, 329, 312, 334,
6950, 331, 327, 313, 334,
6952, 332, 329, 312, 338,
6955, 332, 329, 311, 335,
6958, 332, 329, 311, 334,
6960, 332, 329, 311, 335,
6962, 332, 328, 311, 334,
6965, 332, 329, 310, 334,
6967, 331, 329, 309, 336,
6969, 331, 329, 309, 335,
6972, 331, 328, 308, 334,
6974, 331, 329, 309, 333,
6976, 332, 329, 309, 332,
6978, 333, 328, 308, 331,
6981, 333, 328, 308, 330,
6983, 332, 328, 308, 331,
6985, 332, 327, 308, 331,
6988, 332, 328, 307, 333,
6990, 332, 327, 306, 332,
6992, 332, 328, 306, 330,
6995, 333, 327, 306, 330,
6998, 333, 328, 305, 331,
7000, 333, 327, 304, 334,
7003, 334, 328, 305, 333,
7005, 334, 327, 305, 334,
7007, 335, 327, 304, 334,
7010, 334, 328, 304, 333,
7012, 334, 327, 305, 334,
7014, 334, 327, 304, 334,
7017, 334, 328, 304, 334,
7019, 335, 327, 304, 333,
7021, 335, 327, 304, 334,
7024, 336, 328, 303, 334,
7026, 336, 327, 304, 336,
7028, 335, 328, 304, 333,
7031, 335, 327, 304, 332,
7033, 335, 327, 304, 333,
7035, 335, 327, 304, 333,
7038, 336, 327, 304, 332,
7041, 336, 327, 304, 328,
7043, 335, 327, 305, 326,
7046, 335, 326, 304, 327,
7048, 335, 326, 304, 328,
7050, 334, 327, 304, 329,
7053, 335, 326, 304, 331,
7055, 335, 326, 304, 331,
7057, 335, 326, 304, 331,
7059, 335, 326, 304, 330,
7062, 335, 326, 304, 330,
7064, 334, 326, 304, 329,
7066, 334, 326, 304, 328,
7069, 334, 325, 304, 329,
7071, 335, 326, 303, 330,
7073, 335, 326, 304, 329,
7076, 336, 326, 303, 333,
7078, 335, 325, 304, 331,
7080, 334, 325, 303, 331,
7084, 334, 326, 303, 330,
7086, 333, 325, 303, 330,
7088, 333, 324, 302, 330,
7091, 333, 325, 302, 329,
7093, 332, 325, 302, 329,
7095, 333, 326, 302, 329,
7098, 334, 326, 301, 330,
7100, 333, 325, 301, 330,
7102, 333, 326, 301, 330,
7105, 332, 326, 301, 330,
7107, 333, 326, 300, 330,
7109, 333, 325, 300, 331,
7112, 333, 325, 299, 330,
7114, 332, 325, 298, 329,
7116, 332, 325, 298, 329,
7119, 330, 326, 298, 329,
7121, 330, 326, 297, 329,
7123, 331, 325, 297, 329,
7127, 330, 324, 297, 328,
7129, 330, 326, 297, 333,
7131, 330, 325, 296, 329,
7134, 330, 326, 295, 328,
7136, 329, 325, 295, 327,
7138, 329, 325, 295, 328,
7141, 329, 325, 294, 327,
7143, 329, 325, 294, 328,
7145, 328, 325, 298, 327,
7147, 328, 326, 294, 326,
7150, 328, 326, 293, 326,
7152, 327, 325, 293, 325,
7154, 328, 325, 293, 326,
7157, 327, 325, 293, 325,
7159, 326, 326, 292, 325,
7161, 326, 327, 292, 324,
7164, 325, 326, 292, 324,
7166, 325, 325, 291, 323,
7169, 325, 326, 291, 323,
7172, 325, 324, 291, 323,
7174, 325, 326, 291, 324,
7176, 324, 326, 291, 324,
7179, 327, 326, 291, 324,
7181, 324, 326, 292, 324,
7183, 322, 326, 292, 324,
7186, 322, 326, 291, 324,
7188, 323, 326, 292, 325,
7190, 322, 325, 292, 324,
7193, 321, 327, 292, 324,
7195, 321, 327, 291, 324,
7197, 321, 326, 291, 325,
7200, 320, 326, 292, 324,
7202, 320, 326, 292, 325,
7204, 319, 326, 293, 324,
7207, 320, 327, 292, 325,
7209, 319, 327, 292, 325,
7212, 319, 327, 292, 323,
7215, 318, 327, 294, 323,
7217, 317, 327, 293, 323,
7219, 318, 327, 294, 324,
7222, 318, 327, 294, 324,
7224, 318, 327, 294, 323,
7226, 317, 327, 295, 323,
7229, 316, 327, 295, 324,
7231, 317, 327, 294, 323,
7233, 317, 326, 296, 323,
7235, 316, 328, 296, 323,
7238, 316, 328, 296, 322,
7240, 316, 327, 296, 324,
7242, 316, 327, 297, 323,
7245, 316, 327, 298, 323,
7247, 315, 328, 297, 323,
7249, 315, 328, 298, 322,
7252, 315, 327, 299, 324,
7255, 315, 327, 300, 323,
7257, 314, 327, 300, 323,
7260, 314, 328, 301, 323,
7262, 314, 328, 301, 322,
7264, 314, 327, 301, 323,
7267, 314, 328, 302, 323,
7269, 313, 328, 302, 323,
7271, 314, 328, 303, 322,
7274, 313, 328, 303, 323,
7276, 313, 328, 304, 323,
7278, 312, 328, 304, 323,
7281, 312, 328, 305, 322,
7283, 314, 329, 305, 322,
7285, 314, 328, 306, 323,
7288, 313, 328, 306, 322,
7290, 313, 328, 306, 322,
7292, 313, 329, 307, 323,
7296, 312, 329, 307, 323,
7298, 313, 329, 307, 323,
7300, 313, 328, 308, 323,
7303, 313, 329, 309, 322,
7305, 313, 328, 309, 324,
7307, 314, 328, 309, 323,
7310, 313, 329, 310, 322,
7312, 313, 328, 311, 322,
7314, 313, 328, 312, 322,
7317, 313, 329, 311, 322,
7319, 312, 329, 311, 323,
7321, 313, 329, 317, 322,
7323, 313, 328, 313, 322,
7326, 313, 329, 312, 322,
7328, 313, 329, 313, 322,
7330, 313, 328, 313, 322,
7333, 313, 329, 314, 321,
7335, 313, 329, 314, 322,
7337, 313, 332, 314, 323,
7341, 314, 329, 315, 323,
7343, 314, 328, 315, 323,
7345, 313, 329, 316, 323,
7348, 314, 328, 317, 322,
7350, 315, 329, 316, 322,
7352, 314, 329, 317, 323,
7355, 316, 329, 317, 323,
7357, 313, 329, 319, 323,
7359, 313, 329, 318, 322,
7362, 313, 329, 319, 324,
7364, 313, 329, 319, 323,
7366, 313, 328, 320, 323,
7369, 314, 330, 321, 322,
7371, 314, 329, 321, 322,
7373, 314, 329, 320, 323,
7376, 314, 329, 321, 323,
7378, 314, 328, 322, 323,
7380, 314, 330, 322, 323,
7384, 314, 330, 322, 323,
7386, 315, 330, 322, 322,
7388, 314, 329, 322, 320,
7391, 315, 329, 323, 319,
7393, 314, 330, 322, 320,
7395, 314, 329, 323, 321,
7398, 314, 328, 323, 321,
7400, 316, 329, 324, 322,
7402, 314, 330, 324, 322,
7405, 315, 329, 323, 323,
7407, 315, 330, 324, 323,
7409, 315, 330, 324, 323,
7411, 315, 330, 325, 324,
7414, 314, 331, 325, 323,
7416, 315, 329, 324, 324,
7418, 315, 329, 324, 323,
7421, 315, 330, 325, 323,
7424, 315, 329, 325, 323,
7426, 315, 330, 325, 324,
7429, 315, 330, 325, 325,
7431, 315, 329, 325, 324,
7433, 315, 330, 325, 323,
7436, 314, 330, 325, 323,
7438, 315, 330, 325, 322,
7440, 315, 329, 325, 323,
7443, 316, 330, 325, 324,
7445, 315, 328, 325, 323,
7447, 316, 330, 325, 323,
7450, 316, 330, 326, 325,
7452, 316, 330, 326, 324,
7454, 315, 330, 326, 324,
7457, 315, 330, 327, 324,
7459, 316, 330, 326, 325,
7461, 315, 330, 326, 325,
7464, 316, 330, 326, 324,
7467, 317, 329, 327, 324,
7469, 316, 330, 326, 325,
7472, 316, 330, 327, 325,
7474, 316, 330, 326, 325,
7476, 316, 330, 326, 324,
7479, 316, 330, 327, 324,
7481, 316, 331, 326, 325,
7483, 316, 330, 326, 325,
7486, 316, 330, 326, 324,
7488, 316, 329, 326, 325,
7490, 316, 331, 327, 324,
7493, 317, 330, 326, 325,
7495, 317, 330, 326, 324,
7497, 317, 330, 327, 324,
7499, 317, 330, 327, 324,
7502, 317, 331, 326, 324,
7504, 317, 330, 326, 326,
7506, 317, 330, 327, 325,
7510, 317, 330, 327, 324,
7512, 317, 330, 327, 325,
7514, 318, 333, 327, 325,
7517, 318, 331, 326, 326,
7519, 318, 330, 327, 325,
7521, 317, 330, 327, 325,
7524, 318, 330, 327, 325,
7526, 318, 330, 325, 325,
7528, 317, 330, 326, 326,
7531, 320, 330, 327, 325,
7533, 318, 330, 327, 325,
7535, 318, 330, 327, 325,
7538, 318, 330, 327, 327,
7540, 318, 330, 327, 326,
7542, 318, 329, 327, 326,
7545, 318, 330, 328, 326,
7547, 318, 330, 328, 326,
7549, 318, 329, 327, 327,
7553, 319, 330, 327, 326,
7555, 318, 330, 328, 326,
7557, 318, 331, 328, 326,
7560, 318, 330, 327, 327,
7562, 319, 330, 327, 327,
7564, 318, 330, 328, 326,
7567, 318, 329, 328, 326,
7569, 318, 331, 327, 327,
7571, 318, 330, 328, 327,
7574, 318, 330, 328, 326,
7576, 318, 330, 328, 326,
7578, 318, 331, 327, 326,
7581, 319, 330, 327, 327,
7583, 319, 330, 328, 328,
7585, 319, 330, 328, 327,
7587, 319, 330, 328, 327,
7590, 319, 332, 327, 327,
7592, 319, 330, 327, 328,
7595, 320, 330, 327, 328,
7598, 319, 330, 328, 327,
7600, 319, 331, 329, 327,
7602, 320, 330, 327, 328,
7605, 320, 330, 327, 329,
7607, 320, 331, 327, 328,
7609, 320, 331, 328, 328,
7612, 319, 330, 328, 328,
7614, 319, 331, 327, 328,
7616, 320, 330, 327, 328,
7619, 321, 330, 327, 328,
7621, 320, 331, 328, 328,
7623, 321, 331, 328, 327,
7626, 321, 331, 328, 329,
7628, 321, 331, 327, 328,
7630, 320, 331, 328, 329,
7633, 319, 331, 328, 328,
7635, 321, 331, 328, 329,
7638, 320, 330, 327, 329,
7641, 320, 330, 327, 329,
7643, 320, 330, 328, 329,
7645, 319, 331, 328, 329,
7648, 320, 331, 328, 329,
7650, 320, 330, 328, 329,
7652, 320, 330, 327, 329,
7655, 320, 330, 328, 328,
7657, 321, 330, 328, 330,
7659, 321, 330, 328, 329,
7662, 321, 330, 328, 328,
7664, 320, 328, 328, 328,
7666, 321, 330, 328, 328,
7668, 322, 330, 327, 329,
7671, 322, 330, 328, 329,
7673, 321, 330, 329, 329,
7675, 321, 329, 328, 329,
7678, 321, 330, 328, 328,
7681, 321, 330, 328, 330,
7683, 321, 329, 328, 329,
7686, 322, 330, 328, 327,
7688, 321, 330, 328, 328,
7690, 321, 331, 328, 328,
7693, 322, 330, 328, 330,
7695, 322, 331, 328, 330,
7697, 321, 331, 328, 329,
7700, 322, 331, 328, 329,
7702, 322, 330, 327, 329,
7704, 322, 330, 327, 330,
7707, 324, 330, 328, 330,
7709, 322, 331, 329, 329,
7711, 322, 330, 328, 330,
7714, 322, 330, 329, 329,
7716, 322, 330, 328, 330,
7718, 322, 329, 329, 329,
7721, 322, 331, 329, 329,
7724, 323, 331, 329, 328,
7726, 323, 330, 329, 330,
7729, 323, 330, 328, 330,
7731, 322, 331, 329, 330,
7733, 322, 331, 329, 329,
7736, 321, 330, 328, 330,
7738, 323, 330, 328, 330,
7740, 322, 329, 329, 330,
7743, 321, 330, 330, 329,
7745, 322, 331, 328, 331,
7747, 322, 330, 329, 331,
7750, 322, 330, 329, 330,
7752, 323, 329, 329, 330,
7754, 323, 330, 329, 329,
7756, 323, 330, 329, 330,
7759, 323, 330, 329, 334,
7761, 323, 329, 329, 330,
7763, 324, 330, 329, 330,
7767, 323, 331, 329, 329,
7769, 323, 330, 328, 331,
7771, 323, 329, 329, 331,
7774, 323, 329, 329, 330,
7776, 323, 330, 330, 330,
7778, 324, 330, 328, 331,
7781, 324, 330, 329, 330,
7783, 323, 330, 329, 330,
7785, 323, 329, 329, 330,
7788, 323, 330, 328, 328,
7790, 323, 330, 328, 331,
7792, 323, 328, 329, 330,
7795, 323, 330, 328, 330,
7797, 323, 330, 328, 330,
7799, 324, 330, 328, 330,
7802, 324, 330, 328, 331,
7804, 324, 330, 328, 330,
7806, 324, 330, 328, 330,
7810, 324, 331, 329, 331,
7812, 325, 329, 328, 331,
7814, 325, 329, 328, 331,
7817, 324, 329, 328, 330,
7819, 324, 329, 329, 330,
7821, 324, 330, 329, 330,
7824, 325, 330, 328, 330,
7826, 324, 329, 328, 330,
7828, 324, 329, 327, 330,
7831, 324, 330, 328, 330,
7833, 324, 330, 328, 331,
7835, 324, 330, 328, 331,
7838, 324, 330, 328, 331,
7840, 324, 329, 329, 330,
7842, 325, 329, 329, 330,
7844, 324, 329, 328, 331,
7847, 325, 329, 328, 331,
7849, 325, 330, 328, 330,
7852, 324, 329, 329, 329,
7855, 325, 330, 328, 331,
7857, 325, 329, 328, 331,
7859, 325, 329, 329, 330,
7862, 324, 329, 329, 329,
7864, 324, 329, 329, 330,
7866, 326, 330, 329, 329,
7869, 326, 329, 329, 330,
7871, 325, 328, 329, 330,
7873, 326, 329, 329, 330,
7876, 325, 330, 329, 330,
7878, 326, 329, 328, 332,
7880, 325, 328, 328, 330,
7883, 326, 329, 328, 330,
7885, 325, 328, 330, 330,
7887, 325, 329, 329, 331,
7890, 325, 329, 329, 331,
7892, 325, 329, 328, 330,
7895, 325, 328, 329, 331,
7898, 325, 329, 329, 329,
7900, 325, 330, 330, 330,
7902, 325, 328, 329, 330,
7905, 326, 329, 329, 330,
7907, 326, 329, 330, 330,
7909, 326, 329, 330, 330,
7912, 326, 328, 330, 331,
7914, 327, 329, 330, 330,
7916, 326, 329, 330, 330,
7919, 326, 329, 330, 330,
7921, 326, 329, 330, 330,
7923, 326, 329, 330, 331,
7926, 326, 329, 331, 329,
7928, 326, 328, 331, 330,
7930, 326, 329, 330, 329,
7932, 326, 328, 330, 329,
7936, 326, 328, 331, 334,
7938, 326, 328, 331, 329,
7940, 327, 329, 331, 330,
7943, 327, 330, 330, 329,
7945, 327, 328, 330, 330,
7947, 327, 328, 330, 330,
7950, 327, 327, 331, 329,
7952, 326, 329, 333, 329,
7954, 327, 329, 330, 330,
7957, 326, 329, 330, 330,
7959, 326, 329, 331, 330,
7961, 327, 329, 331, 330,
7964, 326, 330, 332, 330,
7966, 327, 329, 330, 331,
7968, 326, 333, 331, 330,
7971, 327, 329, 329, 329,
7973, 328, 330, 331, 329,
7975, 327, 329, 331, 329,
7979, 327, 329, 331, 330,
7981, 327, 330, 330, 330,
7983, 327, 330, 331, 330,
7986, 331, 330, 331, 330,
7988, 327, 330, 331, 331,
7990, 328, 330, 331, 330,
7993, 327, 330, 331, 330,
7995, 327, 329, 332, 330,
7997, 326, 330, 331, 331,
8000, 327, 330, 331, 330,
8002, 327, 330, 331, 330,
8004, 327, 330, 331, 330,
8007, 327, 330, 331, 330,
8009, 326, 330, 331, 330,
8011, 327, 330, 331, 330,
8014, 327, 330, 332, 330,
8016, 326, 330, 331, 330,
8018, 327, 330, 331, 330,
8020, 327, 330, 331, 330,
8024, 328, 330, 331, 331,
8026, 328, 330, 332, 331,
8028, 327, 330, 332, 330,
8031, 327, 330, 331, 331,
8033, 327, 330, 331, 331,
8035, 327, 330, 332, 330,
8038, 328, 330, 332, 329,
8040, 327, 330, 331, 330,
8042, 328, 330, 332, 332,
8045, 328, 330, 331, 331,
8047, 328, 330, 332, 330,
8049, 328, 330, 332, 330,
8052, 327, 331, 332, 330,
8054, 328, 330, 331, 330,
8056, 328, 330, 332, 331,
8059, 329, 331, 333, 330,
8061, 328, 330, 333, 330,
8064, 328, 330, 332, 331,
8067, 328, 330, 332, 331,
8069, 328, 330, 332, 330,
8071, 327, 330, 332, 330,
8074, 328, 330, 332, 329,
8076, 328, 330, 332, 331,
8078, 328, 330, 332, 330,
8081, 329, 330, 331, 330,
8083, 328, 331, 333, 330,
8085, 328, 331, 333, 330,
8088, 327, 330, 332, 330,
8090, 329, 330, 333, 330,
8092, 328, 330, 334, 330,
8095, 328, 330, 333, 331,
8097, 329, 330, 333, 331,
8099, 329, 330, 333, 331,
8102, 327, 330, 333, 330,
8104, 328, 328, 334, 330,
8107, 328, 328, 333, 330,
8109, 329, 328, 334, 330,
8112, 329, 328, 333, 334,
8114, 329, 328, 334, 330,
8116, 329, 329, 334, 330,
8119, 329, 329, 334, 329,
8121, 329, 328, 334, 330,
8123, 328, 329, 334, 331,
8126, 328, 329, 335, 330,
8128, 328, 329, 337, 330,
8130, 328, 330, 334, 331,
8133, 328, 330, 334, 331,
8135, 328, 330, 335, 330,
8137, 328, 331, 335, 330,
8140, 327, 331, 334, 330,
8142, 328, 330, 334, 332,
8144, 328, 334, 334, 331,
8147, 329, 330, 335, 330,
8150, 329, 331, 335, 330,
8152, 329, 330, 335, 330,
8155, 329, 330, 335, 331,
8157, 330, 330, 336, 331,
8159, 330, 330, 336, 330,
8162, 333, 330, 336, 331,
8164, 330, 330, 336, 331,
8166, 329, 329, 336, 331,
8169, 329, 329, 337, 330,
8171, 329, 328, 337, 330,
8173, 330, 329, 337, 331,
8176, 329, 329, 337, 331,
8178, 330, 329, 337, 330,
8180, 329, 327, 338, 330,
8183, 329, 328, 337, 331,
8185, 328, 329, 337, 331,
8187, 330, 329, 337, 331,
8190, 329, 329, 337, 330,
8193, 329, 330, 337, 330,
8195, 329, 329, 337, 330,
8197, 330, 329, 337, 330,
8200, 330, 329, 338, 330,
8202, 330, 329, 339, 330,
8204, 329, 329, 339, 330,
8207, 331, 329, 338, 331,
8209, 329, 329, 339, 331,
8211, 330, 329, 339, 330,
8214, 329, 329, 340, 329,
8216, 329, 329, 340, 329,
8218, 330, 331, 341, 330,
8221, 330, 328, 340, 329,
8223, 331, 329, 341, 329,
8225, 331, 329, 341, 330,
8228, 330, 330, 341, 329,
8230, 329, 330, 341, 330,
8232, 329, 330, 342, 330,
8236, 330, 330, 342, 329,
8238, 330, 331, 343, 329,
8240, 331, 330, 342, 330,
8243, 332, 330, 342, 330,
8245, 332, 329, 343, 329,
8247, 330, 329, 344, 329,
8250, 331, 328, 344, 329,
8252, 331, 329, 345, 329,
8254, 331, 329, 344, 329,
8257, 332, 329, 343, 328,
8259, 332, 330, 345, 329,
8261, 332, 330, 345, 328,
8264, 331, 329, 344, 330,
8266, 332, 329, 345, 329,
8268, 333, 328, 345, 329,
8271, 332, 329, 345, 329,
8273, 331, 329, 344, 330,
8275, 331, 329, 345, 329,
8278, 330, 330, 345, 329,
8281, 331, 330, 346, 329,
8283, 332, 330, 346, 330,
8285, 331, 330, 346, 330,
8288, 331, 330, 346, 330,
8290, 332, 330, 346, 329,
8292, 333, 330, 345, 330,
8295, 333, 331, 346, 328,
8297, 333, 331, 347, 330,
8299, 334, 330, 347, 329,
8302, 334, 331, 347, 329,
8304, 334, 330, 349, 329,
8306, 334, 329, 346, 330,
8309, 335, 328, 349, 329,
8311, 335, 328, 348, 329,
8313, 335, 329, 349, 329,
8316, 335, 329, 349, 328,
8318, 335, 329, 348, 330,
8321, 334, 330, 348, 329,
8324, 335, 330, 349, 329,
8326, 335, 331, 348, 328,
8328, 335, 330, 348, 329,
8331, 335, 330, 348, 329,
8333, 336, 330, 348, 331,
8335, 336, 331, 347, 329,
8338, 337, 331, 347, 329,
8340, 336, 331, 348, 330,
8342, 336, 332, 348, 329,
8345, 336, 331, 349, 329,
8347, 336, 331, 349, 329,
8349, 338, 330, 349, 328,
8352, 338, 331, 348, 330,
8354, 338, 331, 348, 329,
8356, 338, 331, 349, 329,
8359, 338, 331, 347, 330,
8361, 338, 331, 347, 329,
8364, 338, 330, 348, 329,
8366, 336, 330, 348, 329,
8369, 338, 331, 348, 328,
8371, 338, 331, 349, 329,
8373, 338, 329, 349, 329,
8376, 339, 329, 350, 329,
8378, 339, 328, 349, 329,
8380, 339, 328, 350, 328,
8383, 340, 328, 350, 330,
8385, 340, 328, 349, 329,
8387, 339, 330, 349, 329,
8390, 339, 329, 349, 329,
8392, 339, 330, 349, 329,
8394, 339, 330, 349, 329,
8397, 339, 331, 348, 329,
8399, 338, 330, 348, 329,
8401, 338, 331, 347, 329,
8404, 339, 331, 347, 328,
8407, 340, 330, 348, 329,
8409, 339, 330, 347, 329,
8412, 339, 332, 346, 329,
8414, 339, 332, 347, 328,
8416, 340, 330, 346, 330,
8419, 340, 330, 346, 329,
8421, 340, 330, 347, 329,
8423, 340, 330, 346, 329,
8426, 341, 331, 346, 330,
8428, 340, 331, 346, 330,
8430, 340, 330, 346, 329,
8433, 339, 330, 346, 328,
8435, 340, 330, 346, 329,
8437, 339, 330, 347, 327,
8440, 342, 330, 347, 328,
8442, 339, 330, 348, 328,
8444, 340, 331, 348, 328,
8448, 341, 330, 347, 328,
8450, 340, 330, 346, 329,
8452, 340, 330, 346, 326,
8454, 339, 329, 345, 327,
8457, 340, 328, 345, 327,
8459, 340, 329, 345, 328,
8461, 340, 330, 345, 328,
8464, 339, 330, 345, 328,
8466, 339, 331, 344, 327,
8468, 339, 330, 343, 327,
8471, 339, 331, 342, 327,
8473, 339, 331, 343, 328,
8475, 339, 330, 342, 328,
8478, 339, 332, 342, 327,
8480, 340, 331, 343, 328,
8482, 339, 330, 341, 329,
8485, 340, 330, 342, 328,
8487, 340, 331, 343, 328,
8489, 341, 331, 343, 328,
8493, 340, 331, 343, 328,
8495, 340, 331, 342, 329,
8497, 339, 331, 341, 328,
8500, 341, 330, 341, 328,
8502, 340, 331, 340, 328,
8504, 341, 329, 340, 330,
8507, 341, 329, 340, 329,
8509, 341, 328, 338, 329,
8511, 340, 329, 341, 328,
8514, 342, 328, 342, 328,
8516, 340, 329, 342, 329,
8518, 341, 329, 341, 329,
8521, 340, 328, 341, 329,
8523, 341, 330, 339, 329,
8525, 341, 328, 340, 330,
8528, 341, 329, 340, 329,
8530, 340, 328, 340, 330,
8532, 340, 329, 341, 329,
8536, 341, 330, 340, 330,
8538, 340, 330, 339, 329,
8540, 341, 330, 338, 329,
8542, 339, 331, 340, 329,
8545, 340, 330, 340, 330,
8547, 340, 330, 339, 328,
8549, 339, 330, 339, 329,
8552, 340, 330, 338, 329,
8554, 340, 331, 338, 329,
8556, 340, 330, 337, 329,
8559, 339, 330, 337, 329,
8561, 340, 329, 336, 329,
8563, 340, 330, 337, 329,
8566, 340, 328, 338, 333,
8568, 341, 329, 336, 330,
8570, 340, 330, 334, 329,
8573, 340, 330, 336, 329,
8576, 340, 330, 337, 329,
8578, 341, 329, 337, 329,
8581, 339, 328, 336, 327,
8583, 340, 327, 338, 329,
8585, 340, 327, 336, 329,
8588, 340, 329, 337, 328,
8590, 340, 330, 337, 328,
8592, 340, 330, 335, 329,
8595, 341, 330, 336, 329,
8597, 340, 329, 337, 329,
8599, 340, 329, 338, 328,
8602, 341, 331, 338, 330,
8604, 340, 330, 337, 330,
8606, 341, 330, 336, 329,
8609, 341, 330, 338, 328,
8611, 341, 331, 336, 329,
8613, 341, 331, 336, 329,
8616, 344, 330, 336, 329,
8619, 341, 330, 336, 329,
8621, 341, 331, 337, 328,
8624, 342, 330, 336, 329,
8626, 342, 330, 334, 329,
8628, 342, 330, 334, 329,
8630, 341, 330, 335, 327,
8633, 342, 329, 335, 328,
8635, 342, 329, 335, 328,
8637, 342, 329, 336, 328,
8640, 342, 329, 337, 328,
8642, 343, 329, 336, 328,
8644, 343, 329, 336, 327,
8647, 343, 328, 336, 329,
8649, 344, 326, 336, 328,
8651, 343, 325, 337, 328,
8654, 343, 326, 337, 327,
8656, 343, 327, 338, 327,
8658, 343, 328, 338, 327,
8662, 343, 329, 337, 327,
8664, 343, 329, 337, 327,
8666, 344, 329, 336, 327,
8669, 342, 329, 336, 327,
8671, 344, 330, 336, 327,
8673, 343, 330, 337, 327,
8676, 344, 329, 339, 327,
8678, 344, 330, 339, 327,
8680, 344, 329, 338, 328,
8683, 343, 329, 338, 327,
8685, 344, 329, 337, 326,
8687, 343, 329, 339, 326,
8690, 345, 329, 339, 326,
8692, 343, 329, 337, 327,
8694, 344, 329, 336, 326,
8697, 343, 328, 337, 326,
8699, 343, 329, 338, 326,
8701, 343, 327, 338, 326,
8705, 343, 327, 338, 326,
8707, 342, 327, 339, 326,
8709, 342, 327, 340, 326,
8712, 343, 328, 339, 327,
8714, 343, 327, 338, 326,
8716, 342, 326, 338, 326,
8718, 341, 326, 339, 326,
8721, 342, 328, 339, 325,
8723, 342, 328, 338, 324,
8725, 342, 328, 339, 326,
8728, 342, 328, 340, 326,
8730, 341, 329, 340, 325,
8732, 341, 329, 340, 325,
8735, 341, 329, 341, 327,
8737, 341, 328, 340, 326,
8739, 340, 329, 341, 326,
8742, 340, 328, 341, 327,
8744, 341, 329, 340, 326,
8747, 340, 329, 340, 326,
8750, 339, 329, 339, 326,
8752, 339, 329, 341, 325,
8754, 339, 329, 341, 325,
8757, 338, 329, 342, 326,
8759, 339, 328, 345, 325,
8761, 338, 327, 342, 325,
8764, 338, 328, 342, 325,
8766, 338, 329, 342, 325,
8768, 337, 328, 341, 326,
8771, 338, 328, 342, 324,
8773, 337, 328, 341, 325,
8775, 337, 332, 341, 327,
8778, 337, 328, 342, 326,
8780, 336, 327, 342, 326,
8782, 335, 327, 342, 326,
8785, 334, 327, 343, 326,
8787, 333, 327, 342, 326,
8790, 333, 327, 343, 328,
8793, 334, 326, 342, 326,
8795, 331, 327, 343, 326,
8797, 330, 328, 343, 326,
8800, 330, 328, 342, 327,
8802, 329, 328, 342, 327,
8804, 329, 326, 343, 327,
8806, 328, 328, 342, 326,
8809, 327, 329, 342, 326,
8811, 327, 327, 341, 327,
8813, 326, 328, 341, 327,
8816, 326, 327, 341, 327,
8818, 325, 328, 342, 327,
8820, 324, 328, 342, 327,
8823, 324, 328, 342, 328,
8825, 324, 327, 342, 327,
8827, 324, 327, 342, 326,
8830, 323, 328, 342, 326,
8833, 322, 328, 342, 327,
8835, 323, 327, 342, 327,
8838, 323, 328, 342, 327,
8840, 322, 328, 342, 327,
8842, 323, 328, 341, 327,
8845, 322, 328, 342, 328,
8847, 322, 328, 341, 328,
8849, 321, 328, 342, 328,
8852, 321, 327, 342, 327,
8854, 320, 327, 341, 328,
8856, 320, 328, 341, 329,
8859, 320, 328, 341, 328,
8861, 320, 328, 341, 328,
8863, 319, 328, 341, 327,
8866, 320, 328, 341, 329,
8868, 319, 328, 340, 329,
8870, 319, 328, 341, 329,
8873, 318, 328, 341, 328,
8876, 318, 329, 341, 328,
8878, 318, 327, 341, 329,
8881, 318, 327, 340, 329,
8883, 318, 327, 341, 329,
8885, 318, 328, 341, 329,
8887, 318, 328, 340, 329,
8890, 318, 328, 340, 329,
8892, 318, 328, 340, 329,
8894, 317, 328, 340, 329,
8897, 317, 329, 340, 329,
8899, 317, 328, 340, 330,
8901, 318, 328, 341, 330,
8904, 318, 329, 341, 330,
8906, 318, 328, 340, 329,
8908, 319, 329, 340, 330,
8911, 318, 328, 340, 331,
8913, 318, 328, 341, 330,
8915, 319, 329, 340, 330,
8919, 318, 329, 341, 332,
8921, 318, 329, 340, 331,
8923, 318, 329, 340, 329,
8926, 318, 329, 340, 331,
8928, 318, 329, 341, 331,
8930, 319, 329, 340, 330,
8933, 319, 329, 340, 332,
8935, 318, 329, 342, 331,
8937, 318, 329, 341, 331,
8940, 319, 330, 341, 331,
8942, 318, 330, 341, 330,
8944, 319, 329, 341, 332,
8947, 319, 329, 340, 331,
8949, 318, 328, 341, 331,
8951, 318, 330, 341, 332,
8954, 320, 330, 341, 332,
8956, 319, 329, 340, 332,
8958, 319, 329, 341, 331,
8962, 318, 329, 341, 331,
8964, 318, 330, 339, 331,
8966, 318, 330, 340, 333,
8969, 319, 330, 341, 331,
8971, 318, 329, 341, 331,
8973, 318, 330, 341, 331,
8975, 319, 330, 340, 332,
8978, 319, 330, 341, 332,
8980, 319, 328, 341, 332,
8982, 320, 330, 341, 332,
8985, 319, 330, 341, 332,
8987, 320, 330, 340, 331,
8989, 319, 330, 340, 332,
8992, 319, 330, 340, 333,
8994, 319, 330, 341, 332,
8996, 318, 330, 340, 333,
8999, 320, 330, 340, 333,
9001, 320, 330, 340, 332,
9004, 319, 330, 341, 332,
9007, 319, 330, 340, 332,
9009, 319, 330, 341, 332,
9011, 319, 329, 340, 333,
9014, 319, 329, 340, 332,
9016, 319, 330, 341, 332,
9018, 320, 330, 341, 332,
9021, 320, 330, 341, 333,
9023, 320, 330, 341, 332,
9025, 320, 330, 341, 332,
9028, 320, 328, 341, 332,
9030, 320, 329, 341, 333,
9032, 320, 330, 341, 333,
9035, 320, 330, 340, 332,
9037, 320, 330, 342, 332,
9039, 320, 330, 341, 332,
9042, 320, 330, 341, 333,
9044, 320, 330, 341, 333,
9047, 320, 330, 341, 332,
9050, 319, 330, 341, 332,
9052, 320, 329, 341, 332,
9054, 320, 329, 340, 332,
9057, 320, 329, 340, 332,
9059, 320, 329, 340, 332,
9061, 320, 330, 340, 332,
9063, 320, 330, 340, 332,
9066, 321, 330, 340, 332,
9068, 320, 330, 340, 333,
9070, 320, 330, 340, 333,
9073, 320, 330, 340, 332,
9075, 321, 329, 340, 334,
9077, 321, 328, 341, 333,
9080, 321, 329, 341, 333,
9082, 321, 330, 341, 333,
9084, 322, 330, 340, 332,
9088, 322, 330, 340, 333,
9090, 321, 329, 341, 333,
9092, 323, 329, 340, 333,
9095, 322, 331, 341, 335,
9097, 323, 329, 340, 333,
9099, 322, 329, 340, 333,
9102, 322, 330, 341, 333,
9104, 323, 329, 341, 333,
9106, 323, 330, 340, 333,
9109, 323, 330, 340, 334,
9111, 323, 329, 340, 333,
9113, 323, 330, 341, 333,
9116, 324, 330, 341, 332,
9118, 324, 330, 340, 331,
9120, 324, 329, 340, 333,
9123, 324, 329, 340, 331,
9125, 324, 329, 341, 333,
9127, 324, 330, 340, 332,
9131, 325, 329, 340, 334,
9133, 325, 329, 340, 333,
9135, 325, 329, 341, 333,
9138, 324, 330, 340, 332,
9140, 325, 330, 339, 333,
9142, 325, 329, 340, 334,
9145, 327, 329, 340, 333,
9147, 326, 329, 340, 333,
9149, 326, 329, 340, 333,
9151, 327, 329, 340, 334,
9154, 327, 329, 341, 334,
9156, 327, 328, 341, 333,
9158, 328, 330, 341, 334,
9161, 327, 329, 341, 333,
9163, 328, 329, 340, 334,
9165, 328, 329, 340, 334,
9168, 328, 330, 341, 334,
9170, 328, 330, 341, 333,
9172, 327, 330, 340, 334,
9176, 329, 330, 341, 335,
9178, 329, 330, 341, 334,
9180, 329, 330, 341, 333,
9183, 328, 330, 341, 333,
9185, 329, 330, 341, 333,
9187, 329, 330, 341, 334,
9190, 329, 330, 341, 334,
9192, 329, 331, 342, 333,
9194, 330, 330, 341, 334,
9197, 330, 330, 341, 333,
9199, 330, 330, 341, 334,
9201, 331, 330, 341, 334,
9204, 330, 330, 342, 334,
9206, 331, 330, 341, 335,
9208, 331, 330, 341, 334,
9211, 331, 330, 341, 334,
9213, 331, 330, 343, 334,
9216, 331, 331, 341, 334,
9219, 331, 330, 341, 335,
9221, 331, 329, 341, 334,
9223, 331, 330, 341, 333,
9226, 332, 330, 341, 333,
9228, 331, 331, 341, 333,
9230, 332, 330, 341, 334,
9233, 332, 330, 341, 334,
9235, 332, 331, 341, 333,
9237, 332, 330, 341, 333,
9239, 332, 330, 341, 334,
9242, 332, 330, 341, 334,
9244, 332, 330, 341, 334,
9246, 329, 330, 341, 334,
9249, 332, 331, 341, 334,
9251, 333, 330, 341, 335,
9253, 332, 329, 341, 334,
9256, 333, 330, 341, 334,
9259, 331, 330, 342, 334,
9261, 333, 330, 341, 332,
9264, 333, 330, 341, 334,
9266, 333, 329, 341, 333,
9268, 334, 330, 341, 333,
9271, 333, 331, 341, 333,
9273, 333, 329, 341, 334,
9275, 333, 329, 341, 333,
9278, 333, 329, 342, 333,
9280, 333, 330, 341, 333,
9282, 333, 329, 341, 334,
9285, 333, 329, 341, 335,
9287, 333, 329, 342, 334,
9289, 333, 330, 341, 333,
9292, 333, 329, 341, 333,
9294, 332, 329, 341, 332,
9296, 333, 329, 340, 334,
9299, 333, 329, 341, 333,
9302, 333, 330, 341, 333,
9304, 333, 330, 342, 334,
9307, 334, 330, 340, 334,
9309, 333, 329, 340, 334,
9311, 333, 329, 341, 334,
9314, 333, 329, 341, 334,
9316, 334, 330, 339, 334,
9318, 333, 329, 340, 334,
9321, 334, 329, 340, 333,
9323, 334, 329, 341, 334,
9325, 334, 329, 340, 333,
9327, 334, 329, 340, 334,
9330, 334, 329, 340, 334,
9332, 333, 327, 340, 334,
9334, 334, 329, 340, 334,
9337, 334, 330, 340, 333,
9339, 334, 329, 339, 334,
9341, 334, 329, 340, 334,
9345, 334, 330, 340, 334,
9347, 333, 330, 339, 333,
9349, 333, 330, 339, 334,
9352, 334, 330, 339, 334,
9354, 333, 330, 339, 333,
9356, 333, 330, 339, 333,
9359, 333, 330, 339, 333,
9361, 333, 329, 339, 332,
9363, 333, 329, 339, 334,
9366, 334, 331, 339, 333,
9368, 333, 330, 339, 333,
9370, 334, 330, 339, 333,
9373, 334, 330, 338, 337,
9375, 334, 330, 338, 333,
9377, 334, 330, 338, 333,
9380, 333, 330, 338, 334,
9382, 333, 330, 338, 334,
9384, 334, 330, 338, 333,
9388, 333, 330, 338, 333,
9390, 333, 329, 340, 333,
9392, 333, 330, 338, 333,
9395, 334, 329, 338, 333,
9397, 333, 329, 338, 333,
9399, 333, 329, 338, 333,
9402, 333, 329, 338, 332,
9404, 333, 330, 338, 331,
9406, 333, 332, 337, 333,
9409, 333, 329, 338, 333,
9411, 333, 330, 337, 332,
9413, 333, 329, 337, 332,
9415, 333, 329, 337, 332,
9418, 333, 329, 336, 332,
9420, 333, 329, 337, 333,
9422, 337, 329, 337, 332,
9425, 333, 330, 337, 333,
9427, 333, 329, 336, 334,
9430, 332, 330, 336, 333,
9433, 333, 329, 337, 333,
9435, 332, 330, 336, 332,
9437, 333, 330, 336, 332,
9440, 333, 330, 336, 333,
9442, 333, 329, 336, 332,
9444, 333, 330, 336, 332,
9447, 332, 331, 336, 333,
9449, 333, 330, 335, 333,
9451, 333, 331, 336, 333,
9454, 333, 329, 337, 332,
9456, 333, 330, 337, 332,
9458, 332, 330, 336, 333,
9461, 333, 330, 336, 333,
9463, 332, 330, 336, 332,
9465, 332, 330, 336, 331,
9468, 333, 330, 336, 331,
9470, 332, 330, 336, 332,
9473, 333, 330, 335, 332,
9476, 332, 330, 335, 332,
9478, 332, 331, 336, 332,
9480, 332, 331, 335, 331,
9483, 333, 330, 335, 332,
9485, 332, 330, 335, 332,
9487, 332, 329, 335, 332,
9490, 332, 330, 335, 332,
9492, 333, 330, 335, 332,
9494, 332, 330, 335, 332,
9496, 333, 330, 335, 332,
9499, 332, 329, 335, 332,
9501, 332, 330, 335, 331,
9503, 332, 329, 334, 333,
9506, 332, 330, 335, 332,
9508, 332, 329, 334, 334,
9510, 333, 330, 335, 332,
9513, 332, 330, 335, 331,
9516, 332, 330, 335, 332,
9518, 332, 330, 335, 332,
9521, 332, 329, 335, 332,
9523, 332, 330, 335, 331,
9525, 331, 330, 335, 332,
9528, 332, 330, 335, 332,
9530, 332, 330, 335, 331,
9532, 332, 330, 335, 331,
9535, 332, 330, 335, 331,
9537, 332, 330, 334, 331,
9539, 331, 329, 334, 331,
9542, 333, 331, 334, 331,
9544, 332, 330, 335, 331,
9546, 332, 330, 334, 330,
9549, 332, 330, 334, 335,
9551, 332, 330, 334, 331,
9553, 332, 330, 334, 331,
9556, 332, 331, 334, 331,
9559, 332, 330, 334, 331,
9561, 332, 330, 334, 331,
9564, 331, 330, 334, 331,
9566, 331, 329, 337, 330,
9568, 332, 330, 333, 331,
9571, 332, 330, 334, 331,
9573, 331, 330, 334, 330,
9575, 331, 329, 334, 330,
9578, 331, 330, 333, 329,
9580, 331, 330, 333, 330,
9582, 332, 334, 333, 330,
9584, 331, 329, 333, 330,
9587, 331, 330, 333, 330,
9589, 331, 330, 333, 330,
9591, 332, 330, 332, 330,
9594, 332, 330, 332, 330,
9596, 331, 330, 333, 330,
9598, 335, 330, 333, 330,
9602, 332, 330, 333, 331,
9604, 332, 329, 333, 331,
9606, 331, 330, 333, 330,
9609, 331, 329, 333, 330,
9611, 331, 328, 333, 329,
9613, 331, 329, 332, 331,
9616, 331, 329, 332, 330,
9618, 331, 328, 333, 330,
9620, 331, 329, 333, 330,
9623, 331, 330, 333, 331,
9625, 331, 329, 332, 331,
9627, 330, 329, 333, 330,
9630, 331, 328, 334, 330,
9632, 331, 330, 333, 330,
9634, 331, 329, 332, 330,
9637, 332, 329, 333, 330,
9639, 331, 329, 333, 330,
9641, 331, 328, 334, 329,
9645, 331, 329, 333, 329,
9647, 331, 329, 332, 331,
9649, 331, 329, 332, 330,
9652, 331, 329, 332, 329,
9654, 330, 329, 333, 330,
9656, 331, 329, 333, 329,
9659, 331, 329, 333, 330,
9661, 332, 329, 332, 330,
9663, 331, 328, 333, 330,
9666, 331, 329, 333, 330,
9668, 331, 329, 332, 329,
9670, 331, 328, 332, 330,
9672, 330, 327, 333, 329,
9675, 331, 328, 333, 329,
9677, 331, 329, 333, 330,
9679, 331, 329, 333, 330,
9682, 331, 328, 332, 330,
9684, 331, 327, 333, 329,
9687, 331, 329, 332, 329,
9690, 331, 329, 332, 328,
9692, 332, 328, 332, 330,
9694, 331, 328, 333, 330,
9697, 330, 329, 332, 330,
9699, 330, 329, 332, 329,
9701, 331, 328, 331, 330,
9704, 331, 329, 331, 329,
9706, 331, 328, 332, 330,
9708, 330, 329, 332, 330,
9711, 331, 329, 331, 330,
9713, 331, 329, 331, 330,
9715, 330, 329, 331, 330,
9718, 331, 329, 331, 330,
9720, 331, 329, 332, 329,
9722, 331, 329, 331, 329,
9725, 331, 329, 330, 330,
9728, 331, 329, 331, 330,
9730, 330, 329, 331, 329,
9733, 330, 329, 331, 330,
9735, 331, 329, 330, 330,
9737, 331, 329, 331, 330,
9740, 330, 329, 332, 330,
9742, 330, 328, 331, 329,
9744, 331, 330, 331, 330,
9747, 331, 329, 330, 330,
9749, 331, 329, 331, 330,
9751, 330, 329, 331, 329,
9754, 331, 329, 330, 329,
9756, 330, 331, 330, 331,
9758, 331, 330, 330, 330,
9760, 330, 329, 331, 330,
9763, 331, 330, 330, 330,
9765, 330, 330, 330, 330,
9767, 330, 329, 330, 330,
9771, 331, 329, 329, 330,
9773, 330, 330, 330, 330,
9775, 331, 330, 330, 330,
9778, 331, 330, 330, 331,
9780, 331, 330, 330, 331,
9782, 330, 329, 330, 330,
9785, 330, 329, 331, 331,
9787, 330, 328, 330, 330,
9789, 331, 329, 330, 332,
9792, 331, 330, 330, 331,
9794, 331, 330, 330, 331,
9796, 330, 330, 330, 330,
9799, 330, 330, 330, 330,
9801, 330, 330, 330, 331,
9803, 329, 331, 330, 330,
9806, 330, 329, 330, 331,
9808, 330, 331, 330, 330,
9810, 330, 330, 329, 331,
9814, 331, 330, 329, 331,
9816, 330, 329, 330, 331,
9818, 330, 329, 329, 331,
9821, 330, 330, 330, 331,
9823, 330, 330, 330, 332,
9825, 330, 330, 330, 331,
9828, 331, 329, 329, 335,
9830, 330, 330, 330, 331,
9832, 330, 330, 330, 332,
9835, 330, 330, 330, 331,
9837, 330, 330, 330, 331,
9839, 330, 330, 330, 331,
9842, 330, 330, 330, 332,
9844, 331, 330, 329, 331,
9846, 330, 330, 329, 332,
9848, 330, 330, 330, 331,
9851, 330, 330, 330, 331,
9853, 330, 330, 329, 331,
9856, 330, 329, 329, 331,
9859, 330, 329, 329, 331,
9861, 330, 330, 329, 331,
9863, 330, 330, 329, 331,
9866, 330, 330, 329, 330,
9868, 330, 329, 329, 331,
9870, 330, 329, 329, 331,
9873, 330, 330, 330, 331,
9875, 330, 330, 329, 330,
9877, 334, 329, 329, 330,
9880, 331, 329, 329, 331,
9882, 330, 329, 329, 331,
9884, 330, 330, 329, 331,
9887, 331, 330, 329, 332,
9889, 330, 329, 329, 331,
9891, 330, 330, 329, 331,
9894, 330, 329, 330, 330,
9896, 330, 330, 329, 330,
9899, 331, 329, 329, 332,
9902, 330, 329, 328, 331,
9904, 330, 329, 328, 331,
9906, 330, 329, 329, 330,
9909, 330, 330, 329, 331,
9911, 331, 329, 328, 331,
9913, 331, 329, 329, 330,
9916, 330, 329, 328, 330,
9918, 330, 330, 329, 330,
9920, 331, 329, 328, 331,
9923, 330, 330, 329, 330,
9925, 330, 329, 329, 330,
9927, 330, 329, 330, 330,
9930, 330, 329, 328, 329,
9932, 330, 329, 328, 331,
9934, 330, 330, 328, 330,
9936, 330, 329, 328, 329,
9939, 330, 330, 328, 329,
9942, 330, 329, 328, 329,
9944, 330, 329, 328, 330,
9947, 330, 329, 328, 330,
9949, 330, 329, 328, 329,
9951, 331, 329, 328, 329,
9954, 330, 329, 328, 330,
9956, 330, 329, 328, 330,
9958, 329, 329, 328, 330,
9961, 330, 328, 329, 329,
9963, 329, 329, 328, 329,
9965, 329, 329, 328, 331,
9968, 330, 329, 328, 330,
9970, 330, 329, 328, 329,
9972, 330, 329, 328, 329,
9975, 329, 330, 328, 329,
9977, 330, 329, 328, 330,
9979, 329, 329, 328, 330,
9982, 330, 330, 328, 330,
9985, 329, 330, 328, 329,
9987, 330, 329, 327, 331,
9990, 330, 329, 328, 330,
9992, 329, 329, 328, 330,
9994, 330, 328, 329, 330,
9997, 330, 329, 328, 330,
9999, 330, 329, 328, 331,
10001, 330, 329, 328, 330,
10004, 330, 329, 328, 330,
10006, 329, 329, 328, 330,
10008, 330, 330, 328, 329,
10011, 330, 329, 326, 330,
10013, 330, 329, 328, 330,
10016, 330, 329, 328, 330,
10018, 330, 329, 327, 330,
10020, 330, 329, 327, 330,
10023, 330, 329, 327, 329,
10025, 330, 329, 327, 329,
10029, 330, 329, 328, 329,
10031, 330, 329, 327, 329,
10034, 330, 329, 327, 330,
10036, 330, 329, 328, 329,
10038, 331, 328, 328, 329,
10041, 330, 328, 327, 330,
10043, 329, 329, 327, 330,
10046, 330, 328, 327, 329,
10048, 330, 329, 328, 329,
10050, 330, 329, 326, 330,
10053, 330, 329, 331, 329,
10055, 329, 329, 327, 329,
10058, 332, 328, 327, 330,
10060, 330, 328, 328, 329,
10062, 330, 329, 328, 329,
10065, 330, 328, 330, 329,
10067, 330, 329, 328, 329,
10071, 330, 329, 326, 329,
10073, 330, 328, 327, 330,
10075, 330, 328, 328, 329,
10078, 330, 329, 327, 330,
10080, 330, 330, 327, 330,
10083, 330, 329, 326, 329,
10085, 330, 328, 327, 328,
10087, 330, 328, 327, 329,
10090, 329, 329, 327, 330,
10092, 330, 327, 327, 329,
10095, 330, 328, 327, 329,
10097, 330, 329, 327, 330,
10100, 330, 329, 327, 329,
10102, 330, 329, 328, 329,
10104, 330, 329, 327, 329,
10107, 329, 329, 327, 330,
10109, 330, 328, 326, 330,
10113, 330, 328, 327, 329,
10115, 330, 329, 327, 329,
10117, 330, 329, 326, 330,
10120, 331, 329, 327, 329,
10122, 330, 329, 327, 330,
10125, 329, 328, 327, 329,
10127, 329, 327, 326, 330,
10129, 330, 328, 326, 330,
10132, 330, 329, 326, 329,
10134, 329, 328, 326, 330,
10137, 330, 328, 326, 330,
10139, 331, 331, 327, 329,
10141, 329, 329, 327, 329,
10144, 330, 328, 327, 329,
10146, 330, 328, 327, 329,
10149, 330, 329, 326, 330,
10151, 330, 331, 327, 329,
10153, 330, 328, 327, 330,
10157, 330, 328, 326, 329,
10159, 330, 328, 327, 330,
10162, 329, 329, 327, 331,
10164, 330, 329, 327, 330,
10167, 330, 329, 326, 330,
10169, 330, 328, 326, 330,
10171, 330, 329, 326, 330,
10174, 329, 329, 326, 330,
10176, 330, 329, 326, 329,
10179, 329, 329, 326, 330,
10181, 331, 328, 327, 330,
10183, 330, 327, 327, 329,
10186, 330, 329, 326, 330,
10188, 330, 329, 326, 329,
10191, 330, 328, 327, 329,
10193, 330, 329, 326, 330,
10195, 330, 329, 326, 329,
10199, 329, 329, 326, 329,
10201, 330, 329, 326, 329,
10204, 330, 328, 326, 329,
10206, 329, 329, 326, 329,
10208, 330, 328, 326, 329,
10211, 331, 328, 327, 329,
10213, 328, 328, 326, 329,
10216, 330, 328, 327, 328,
10218, 330, 328, 327, 329,
10220, 330, 329, 327, 332,
10223, 328, 328, 326, 329,
10225, 329, 328, 327, 329,
10228, 330, 326, 327, 329,
10230, 330, 328, 326, 329,
10233, 329, 328, 326, 333,
10235, 330, 328, 326, 329,
10237, 334, 329, 327, 329,
10241, 330, 327, 327, 330,
10243, 328, 329, 326, 330,
10246, 330, 328, 326, 330,
10248, 330, 328, 327, 330,
10250, 331, 329, 327, 330,
10253, 330, 329, 327, 330,
10255, 329, 329, 327, 330,
10258, 329, 329, 327, 330,
10260, 330, 328, 327, 330,
10262, 330, 328, 326, 330,
10265, 330, 328, 327, 329,
10267, 329, 328, 327, 330,
10270, 329, 329, 326, 330,
10272, 330, 328, 327, 330,
10274, 329, 329, 327, 328,
10277, 330, 329, 327, 331,
10279, 330, 329, 327, 330,
10283, 330, 329, 326, 330,
10285, 330, 328, 326, 330,
10287, 331, 328, 327, 330,
10290, 330, 329, 326, 330,
10292, 329, 329, 326, 330,
10295, 330, 329, 326, 329,
10297, 330, 329, 326, 329,
10300, 330, 329, 326, 330,
10302, 329, 329, 326, 330,
10304, 329, 329, 326, 330,
10307, 330, 329, 327, 329,
10309, 329, 329, 326, 330,
10312, 329, 328, 326, 330,
10314, 328, 329, 326, 330,
10316, 329, 329, 326, 330,
10319, 330, 329, 330, 330,
10321, 329, 329, 326, 330,
10324, 329, 328, 326, 330,
10327, 329, 329, 325, 330,
10329, 330, 329, 326, 330,
10332, 330, 329, 327, 330,
10334, 329, 329, 326, 330,
10337, 328, 328, 326, 331,
10339, 330, 328, 325, 330,
10341, 330, 328, 325, 330,
10344, 330, 328, 326, 329,
10346, 330, 328, 327, 330,
10349, 330, 328, 327, 331,
10351, 330, 328, 327, 330,
10353, 330, 328, 327, 330,
10356, 331, 327, 326, 331,
10358, 330, 328, 327, 330,
10361, 330, 328, 326, 331,
10363, 329, 328, 326, 330,
10366, 330, 328, 325, 330,
10369, 330, 329, 326, 330,
10371, 330, 328, 326, 331,
10374, 329, 328, 326, 330,
10376, 331, 328, 326, 330,
10379, 331, 328, 327, 330,
10381, 331, 328, 326, 329,
10383, 330, 328, 326, 330,
10386, 331, 328, 326, 330,
10388, 331, 329, 326, 331,
10391, 331, 329, 327, 330,
10393, 330, 329, 326, 331,
10395, 331, 328, 326, 331,
10398, 331, 329, 326, 330,
10400, 331, 329, 326, 330,
10403, 330, 329, 325, 330,
10405, 330, 331, 326, 330,
10407, 331, 327, 326, 330,
10411, 330, 329, 327, 330,
10413, 330, 329, 326, 330,
10416, 331, 329, 326, 330,
10418, 330, 330, 326, 330,
10420, 331, 329, 326, 331,
10423, 330, 329, 326, 330,
10425, 330, 329, 326, 330,
10428, 331, 329, 327, 330,
10430, 331, 329, 327, 331,
10432, 330, 329, 326, 330,
10435, 330, 329, 326, 330,
10437, 331, 329, 328, 330,
10440, 331, 328, 327, 330,
10442, 330, 329, 327, 330,
10445, 330, 329, 326, 330,
10447, 331, 328, 326, 330,
10449, 331, 329, 327, 328,
10452, 331, 328, 327, 330,
10455, 331, 329, 327, 329,
10458, 331, 329, 327, 330,
10460, 332, 329, 327, 330,
10462, 331, 329, 327, 329,
10465, 331, 329, 326, 331,
10467, 332, 329, 326, 330,
10470, 330, 329, 326, 330,
10472, 330, 328, 326, 329,
10474, 331, 329, 327, 329,
10477, 331, 329, 326, 331,
10479, 331, 329, 326, 331,
10482, 331, 329, 326, 331,
10484, 332, 329, 327, 330,
10486, 332, 329, 326, 334,
10489, 332, 329, 326, 331,
10491, 332, 330, 327, 331,
10494, 331, 329, 327, 330,
10497, 332, 329, 326, 331,
10499, 332, 328, 326, 330,
10502, 332, 329, 326, 331,
10504, 335, 329, 326, 330,
10507, 333, 329, 326, 330,
10509, 332, 329, 326, 331,
10512, 333, 330, 326, 331,
10514, 332, 329, 324, 330,
10516, 333, 330, 327, 330,
10519, 333, 329, 325, 331,
10521, 332, 329, 326, 331,
10524, 333, 329, 325, 331,
10526, 333, 329, 326, 331,
10528, 333, 330, 325, 331,
10531, 333, 329, 326, 330,
10533, 332, 329, 325, 331,
10536, 334, 329, 325, 330,
10539, 333, 329, 325, 331,
10541, 333, 329, 324, 331,
10544, 334, 327, 326, 330,
10546, 334, 329, 326, 331,
10549, 334, 329, 325, 331,
10551, 334, 329, 325, 331,
10553, 334, 329, 325, 331,
10556, 334, 329, 325, 331,
10558, 333, 329, 325, 330,
10561, 333, 329, 324, 331,
10563, 333, 329, 325, 330,
10565, 334, 329, 325, 331,
10568, 334, 329, 325, 332,
10570, 334, 330, 325, 331,
10573, 334, 329, 324, 331,
10575, 335, 329, 325, 331,
10578, 334, 329, 325, 331,
10580, 335, 329, 324, 331,
10583, 335, 328, 324, 331,
10586, 335, 330, 325, 332,
10588, 335, 329, 324, 332,
10591, 334, 329, 324, 331,
10593, 335, 329, 324, 332,
10595, 335, 330, 324, 332,
10598, 334, 329, 325, 333,
10600, 335, 329, 324, 331,
10603, 334, 329, 324, 332,
10605, 334, 329, 323, 332,
10607, 334, 330, 324, 332,
10610, 335, 329, 324, 332,
10612, 335, 329, 323, 332,
10615, 334, 329, 324, 332,
10617, 334, 329, 323, 332,
10619, 335, 327, 323, 332,
10622, 335, 329, 323, 332,
10625, 334, 329, 322, 333,
10628, 335, 329, 323, 332,
10630, 334, 329, 322, 332,
10632, 335, 330, 322, 333,
10635, 336, 329, 323, 332,
10637, 334, 329, 324, 332,
10640, 335, 330, 322, 332,
10642, 335, 330, 323, 332,
10645, 335, 330, 322, 333,
10647, 335, 329, 322, 333,
10649, 335, 330, 323, 332,
10652, 335, 330, 321, 332,
10654, 336, 330, 322, 333,
10657, 334, 330, 321, 333,
10659, 334, 329, 321, 332,
10661, 335, 330, 321, 332,
10664, 334, 331, 321, 333,
10667, 334, 330, 320, 333,
10670, 334, 331, 320, 333,
10672, 335, 335, 320, 332,
10674, 335, 331, 320, 332,
10677, 334, 330, 319, 334,
10679, 335, 331, 320, 333,
10682, 334, 331, 320, 333,
10684, 334, 332, 319, 333,
10686, 334, 331, 319, 334,
10689, 333, 331, 318, 334,
10691, 334, 332, 318, 335,
10694, 333, 331, 318, 334,
10696, 333, 331, 318, 334,
10698, 334, 330, 317, 333,
10701, 333, 331, 318, 333,
10703, 333, 331, 317, 334,
10706, 334, 331, 317, 333,
10708, 333, 331, 316, 334,
10712, 333, 332, 316, 335,
10714, 333, 331, 316, 334,
10716, 333, 331, 315, 335,
10719, 332, 331, 314, 334,
10721, 332, 331, 314, 335,
10724, 333, 330, 314, 334,
10726, 333, 331, 314, 334,
10728, 332, 331, 313, 334,
10731, 333, 331, 313, 335,
10733, 332, 331, 311, 335,
10736, 333, 330, 312, 334,
10738, 332, 331, 311, 332,
10740, 332, 330, 311, 331,
10743, 332, 330, 311, 332,
10745, 332, 330, 310, 333,
10748, 332, 331, 310, 335,
10750, 332, 330, 310, 335,
10753, 332, 330, 310, 337,
10756, 332, 329, 309, 335,
10758, 331, 331, 308, 335,
10761, 331, 330, 308, 336,
10763, 332, 330, 308, 335,
10765, 332, 330, 308, 336,
10768, 332, 330, 307, 336,
10770, 332, 330, 307, 335,
10773, 331, 330, 306, 336,
10775, 331, 330, 306, 336,
10778, 332, 330, 306, 336,
10780, 331, 330, 305, 336,
10782, 332, 330, 304, 335,
10785, 331, 330, 304, 336,
10787, 331, 329, 304, 335,
10790, 332, 330, 304, 335,
10792, 331, 329, 303, 335,
10795, 331, 329, 303, 334,
10798, 331, 330, 302, 335,
10800, 331, 329, 302, 336,
10803, 331, 329, 302, 335,
10805, 331, 329, 301, 335,
10807, 332, 330, 300, 334,
10810, 331, 329, 300, 332,
10812, 332, 329, 300, 333,
10815, 332, 328, 300, 333,
10817, 331, 329, 299, 334,
10819, 331, 329, 299, 334,
10822, 332, 328, 299, 334,
10824, 330, 328, 298, 334,
10827, 331, 328, 297, 333,
10829, 330, 328, 298, 333,
10831, 331, 329, 297, 334,
10834, 331, 328, 298, 334,
10836, 330, 328, 297, 333,
10840, 330, 328, 300, 333,
10842, 331, 328, 297, 332,
10845, 331, 328, 297, 332,
10847, 331, 327, 296, 332,
10849, 331, 328, 297, 332,
10852, 331, 327, 299, 333,
10854, 331, 327, 296, 332,
10857, 331, 326, 295, 332,
10859, 331, 327, 295, 332,
10861, 332, 327, 296, 332,
10864, 331, 328, 295, 333,
10866, 331, 327, 296, 333,
10869, 330, 327, 295, 333,
10871, 331, 327, 295, 332,
10873, 331, 327, 295, 332,
10876, 329, 327, 295, 333,
10878, 330, 326, 295, 332,
10882, 330, 327, 296, 332,
10884, 330, 328, 296, 333,
10886, 330, 326, 296, 332,
10889, 329, 327, 296, 333,
10891, 330, 326, 297, 332,
10894, 329, 327, 296, 332,
10896, 329, 326, 297, 331,
10898, 329, 326, 298, 331,
10901, 329, 327, 298, 331,
10903, 328, 327, 298, 332,
10906, 329, 327, 299, 331,
10908, 328, 327, 299, 332,
10910, 328, 328, 299, 332,
10913, 328, 325, 301, 331,
10915, 328, 327, 300, 332,
10918, 328, 326, 301, 331,
10920, 327, 327, 301, 331,
10924, 328, 327, 302, 331,
10926, 328, 326, 302, 331,
10928, 327, 327, 302, 331,
10931, 327, 327, 303, 330,
10933, 327, 327, 304, 331,
10936, 327, 326, 305, 330,
10938, 327, 329, 305, 329,
10940, 326, 326, 305, 330,
10943, 327, 326, 306, 329,
10945, 326, 327, 305, 329,
10948, 326, 327, 306, 330,
10950, 327, 327, 307, 329,
10952, 325, 326, 307, 329,
10955, 325, 326, 308, 329,
10957, 326, 327, 308, 329,
10960, 325, 327, 308, 329,
10962, 325, 327, 308, 329,
10964, 325, 326, 309, 329,
10968, 325, 325, 309, 329,
10970, 325, 326, 309, 328,
10973, 325, 327, 309, 329,
10975, 325, 327, 310, 328,
