starting
0, 331, 331, 331, 331,
1, 331, 332, 332, 331,
2, 332, 332, 330, 332,
4, 332, 333, 331, 332,
5, 332, 333, 332, 332,
7, 332, 333, 331, 331,
8, 332, 332, 331, 332,
10, 332, 333, 331, 331,
12, 332, 333, 331, 331,
14, 332, 333, 332, 332,
16, 332, 332, 332, 332,
19, 332, 332, 331, 332,
21, 332, 332, 332, 332,
23, 331, 332, 332, 332,
25, 332, 333, 332, 330,
27, 332, 333, 332, 332,
29, 332, 333, 331, 331,
32, 332, 333, 332, 332,
34, 331, 335, 331, 331,
36, 332, 332, 331, 332,
38, 333, 333, 331, 331,
40, 332, 332, 332, 333,
43, 331, 332, 332, 331,
46, 332, 333, 331, 332,
48, 331, 332, 332, 332,
50, 331, 332, 331, 331,
52, 332, 332, 330, 332,
54, 332, 332, 331, 335,
56, 332, 332, 331, 331,
58, 332, 332, 332, 332,
61, 330, 332, 331, 331,
63, 332, 332, 331, 332,
65, 331, 332, 331, 331,
67, 332, 332, 332, 332,
69, 331, 332, 332, 331,
71, 332, 330, 331, 331,
74, 332, 332, 332, 331,
76, 332, 331, 331, 331,
78, 332, 332, 332, 332,
80, 332, 332, 333, 331,
82, 331, 332, 332, 331,
84, 330, 332, 332, 331,
88, 332, 333, 333, 332,
90, 332, 331, 331, 332,
92, 330, 331, 332, 331,
94, 331, 332, 331, 331,
96, 331, 332, 331, 331,
98, 331, 332, 331, 331,
100, 331, 332, 332, 331,
103, 331, 331, 332, 331,
105, 332, 332, 332, 330,
107, 330, 332, 331, 331,
109, 331, 331, 332, 331,
112, 331, 333, 332, 331,
114, 331, 331, 332, 331,
116, 332, 332, 333, 330,
118, 331, 332, 333, 332,
121, 331, 332, 333, 332,
123, 331, 332, 332, 331,
125, 331, 332, 333, 331,
128, 331, 332, 335, 331,
131, 331, 331, 333, 332,
133, 331, 332, 333, 332,
135, 330, 332, 332, 331,
137, 330, 332, 333, 332,
140, 330, 333, 332, 332,
142, 330, 332, 332, 332,
144, 331, 332, 332, 331,
146, 330, 332, 332, 332,
149, 330, 332, 333, 332,
151, 330, 333, 333, 332,
153, 331, 331, 333, 332,
155, 331, 332, 333, 332,
158, 331, 332, 333, 332,
160, 330, 332, 331, 332,
162, 330, 332, 333, 332,
164, 331, 332, 333, 332,
166, 330, 332, 334, 332,
169, 331, 334, 333, 332,
172, 330, 331, 333, 332,
174, 330, 331, 333, 333,
176, 330, 332, 332, 332,
179, 330, 332, 333, 331,
181, 331, 332, 334, 332,
183, 329, 332, 333, 332,
185, 330, 331, 334, 332,
188, 330, 332, 332, 332,
190, 330, 332, 333, 332,
192, 330, 332, 333, 333,
194, 330, 332, 333, 332,
197, 330, 331, 333, 332,
199, 330, 331, 332, 332,
201, 330, 332, 333, 337,
203, 330, 332, 333, 333,
206, 330, 331, 333, 332,
208, 330, 331, 334, 332,
210, 330, 331, 333, 332,
212, 330, 331, 334, 331,
216, 330, 332, 333, 332,
218, 331, 331, 332, 332,
220, 330, 331, 332, 332,
222, 330, 331, 333, 332,
225, 331, 331, 332, 330,
227, 330, 332, 332, 332,
229, 330, 330, 332, 332,
231, 330, 330, 331, 332,
233, 331, 331, 331, 332,
236, 331, 331, 332, 331,
238, 330, 331, 331, 332,
240, 330, 331, 332, 332,
242, 331, 331, 332, 331,
245, 331, 331, 331, 332,
247, 330, 331, 331, 332,
249, 330, 331, 331, 332,
251, 330, 332, 332, 332,
254, 331, 332, 332, 332,
257, 332, 331, 331, 332,
259, 332, 331, 331, 332,
261, 331, 331, 331, 332,
264, 331, 331, 331, 332,
266, 331, 332, 331, 332,
268, 332, 331, 331, 332,
270, 332, 331, 331, 332,
273, 332, 331, 331, 331,
275, 331, 331, 329, 332,
277, 332, 332, 331, 332,
279, 332, 331, 331, 332,
282, 332, 332, 331, 331,
284, 332, 332, 331, 331,
286, 332, 332, 329, 332,
288, 332, 332, 331, 332,
291, 332, 332, 331, 332,
293, 333, 332, 331, 332,
295, 333, 332, 331, 333,
297, 333, 332, 331, 333,
300, 333, 332, 331, 334,
303, 332, 332, 331, 332,
305, 332, 332, 331, 332,
307, 333, 332, 331, 333,
309, 333, 332, 330, 333,
312, 333, 331, 330, 332,
314, 332, 332, 330, 332,
316, 332, 332, 331, 332,
318, 332, 332, 331, 333,
321, 333, 332, 331, 333,
323, 333, 332, 332, 332,
325, 333, 332, 331, 332,
327, 332, 332, 332, 333,
330, 333, 332, 332, 333,
332, 333, 332, 331, 332,
334, 333, 332, 331, 332,
336, 333, 332, 331, 333,
339, 332, 332, 332, 333,
342, 332, 332, 331, 333,
344, 333, 332, 331, 333,
346, 333, 332, 332, 333,
349, 332, 332, 331, 334,
351, 332, 333, 331, 333,
353, 332, 332, 331, 333,
355, 332, 333, 332, 333,
357, 332, 332, 333, 333,
360, 333, 333, 331, 332,
362, 336, 333, 333, 333,
364, 332, 333, 333, 333,
366, 332, 333, 333, 333,
369, 332, 332, 332, 333,
371, 332, 333, 332, 334,
373, 333, 332, 332, 333,
375, 332, 333, 333, 333,
378, 332, 337, 333, 332,
380, 332, 333, 332, 333,
382, 334, 332, 333, 332,
385, 332, 332, 333, 333,
388, 332, 333, 333, 333,
390, 332, 333, 333, 333,
392, 332, 333, 333, 333,
394, 332, 332, 337, 333,
397, 332, 333, 333, 333,
399, 331, 333, 333, 333,
401, 331, 333, 333, 333,
403, 331, 333, 333, 333,
406, 331, 332, 332, 332,
408, 331, 333, 333, 333,
410, 331, 332, 333, 329,
412, 331, 333, 333, 333,
415, 330, 333, 333, 333,
417, 331, 333, 333, 332,
419, 331, 333, 333, 333,
421, 332, 332, 333, 332,
423, 332, 333, 333, 333,
427, 331, 333, 333, 333,
429, 331, 333, 334, 332,
431, 331, 333, 334, 333,
433, 331, 332, 333, 332,
436, 331, 333, 334, 332,
438, 330, 333, 333, 332,
440, 330, 332, 333, 333,
442, 330, 333, 333, 333,
445, 330, 332, 333, 332,
447, 331, 332, 333, 332,
449, 331, 332, 333, 331,
451, 330, 333, 333, 333,
454, 331, 333, 333, 332,
456, 330, 333, 333, 332,
458, 331, 332, 333, 331,
460, 331, 332, 333, 332,
463, 330, 333, 333, 332,
465, 330, 333, 333, 332,
467, 330, 332, 333, 335,
470, 331, 334, 332, 332,
473, 332, 331, 333, 332,
475, 330, 332, 333, 333,
477, 331, 332, 333, 332,
479, 331, 333, 332, 332,
482, 330, 333, 333, 332,
484, 331, 332, 333, 332,
486, 331, 332, 333, 332,
488, 330, 333, 333, 332,
490, 330, 333, 333, 331,
493, 331, 332, 332, 332,
495, 331, 333, 333, 332,
497, 331, 333, 333, 331,
499, 331, 332, 333, 332,
502, 331, 332, 333, 333,
504, 330, 333, 333, 331,
506, 331, 332, 333, 332,
508, 331, 332, 333, 332,
512, 332, 332, 333, 332,
514, 330, 332, 333, 332,
516, 331, 332, 333, 332,
518, 331, 333, 333, 332,
521, 332, 332, 333, 332,
523, 331, 332, 333, 332,
525, 332, 332, 333, 332,
527, 331, 333, 333, 331,
530, 331, 332, 333, 331,
532, 331, 333, 333, 331,
534, 332, 332, 333, 332,
536, 331, 332, 333, 331,
539, 332, 332, 333, 331,
541, 332, 332, 332, 331,
543, 332, 332, 333, 331,
545, 332, 333, 333, 332,
548, 332, 332, 333, 331,
550, 333, 332, 333, 332,
552, 332, 333, 334, 332,
555, 332, 333, 334, 331,
557, 332, 333, 334, 331,
560, 332, 331, 333, 331,
562, 332, 332, 333, 330,
564, 332, 332, 333, 330,
566, 332, 332, 333, 330,
569, 332, 332, 333, 331,
571, 334, 332, 332, 331,
573, 332, 333, 333, 332,
575, 331, 332, 333, 331,
578, 332, 332, 333, 331,
580, 332, 332, 332, 331,
582, 332, 332, 332, 331,
584, 332, 333, 333, 331,
587, 333, 334, 333, 331,
589, 333, 332, 333, 331,
591, 332, 331, 332, 331,
593, 332, 331, 333, 331,
596, 332, 332, 333, 331,
599, 332, 332, 333, 331,
601, 331, 332, 332, 332,
603, 332, 331, 332, 331,
606, 332, 331, 332, 330,
608, 332, 331, 333, 331,
610, 332, 332, 333, 332,
612, 332, 332, 332, 331,
615, 332, 331, 332, 331,
617, 332, 332, 332, 331,
619, 332, 332, 332, 331,
621, 332, 332, 332, 332,
623, 332, 332, 332, 330,
626, 332, 332, 332, 331,
628, 333, 332, 332, 332,
630, 332, 332, 332, 331,
632, 332, 332, 331, 331,
635, 332, 333, 332, 331,
637, 332, 332, 332, 331,
640, 331, 332, 332, 331,
642, 332, 332, 331, 331,
645, 332, 333, 330, 331,
647, 332, 332, 331, 331,
649, 332, 332, 331, 332,
651, 332, 332, 331, 331,
654, 332, 332, 331, 331,
656, 332, 331, 331, 331,
658, 332, 332, 331, 331,
660, 332, 332, 336, 331,
663, 333, 331, 331, 331,
665, 332, 332, 332, 331,
667, 332, 331, 331, 331,
669, 332, 332, 332, 330,
672, 332, 332, 332, 331,
674, 333, 331, 331, 332,
676, 333, 331, 332, 335,
678, 332, 331, 331, 331,
681, 333, 331, 332, 330,
684, 332, 332, 331, 331,
686, 332, 330, 332, 331,
688, 333, 331, 332, 331,
690, 333, 331, 331, 331,
693, 333, 331, 331, 331,
695, 332, 331, 332, 332,
697, 332, 332, 332, 331,
699, 332, 331, 332, 331,
702, 333, 331, 332, 332,
704, 333, 331, 332, 332,
706, 333, 331, 331, 331,
708, 332, 332, 332, 330,
711, 333, 332, 332, 331,
713, 333, 330, 331, 332,
715, 333, 330, 331, 331,
717, 333, 331, 332, 331,
720, 332, 332, 332, 332,
722, 331, 331, 331, 331,
724, 333, 331, 331, 332,
727, 333, 331, 331, 331,
730, 332, 331, 332, 330,
732, 333, 331, 330, 331,
734, 333, 331, 331, 332,
736, 333, 330, 332, 331,
739, 333, 329, 332, 331,
741, 333, 331, 332, 331,
743, 334, 330, 332, 331,
745, 333, 331, 332, 332,
748, 334, 331, 332, 331,
750, 334, 331, 331, 332,
752, 334, 330, 332, 331,
754, 334, 331, 332, 332,
756, 334, 331, 332, 330,
759, 334, 332, 333, 331,
761, 334, 332, 332, 331,
763, 334, 331, 332, 332,
765, 334, 330, 332, 332,
769, 334, 331, 332, 331,
771, 334, 331, 332, 331,
773, 334, 331, 333, 331,
775, 334, 332, 333, 331,
778, 335, 331, 332, 332,
780, 333, 332, 333, 332,
782, 334, 331, 333, 331,
784, 334, 332, 333, 331,
787, 335, 332, 333, 332,
789, 335, 331, 332, 331,
791, 335, 331, 333, 331,
793, 335, 331, 332, 331,
796, 334, 332, 332, 331,
798, 334, 332, 332, 331,
800, 334, 332, 333, 331,
802, 336, 331, 333, 331,
805, 335, 331, 333, 331,
807, 335, 331, 332, 331,
809, 334, 331, 333, 331,
812, 334, 331, 332, 331,
814, 335, 332, 333, 331,
817, 335, 332, 332, 331,
819, 334, 332, 332, 332,
821, 334, 332, 332, 331,
823, 334, 332, 332, 331,
826, 334, 332, 332, 331,
828, 335, 332, 332, 332,
830, 335, 331, 331, 331,
832, 334, 331, 332, 331,
835, 334, 332, 333, 331,
837, 336, 332, 332, 331,
839, 335, 331, 332, 332,
841, 334, 332, 332, 331,
844, 334, 331, 332, 331,
846, 333, 332, 332, 331,
848, 334, 332, 332, 331,
850, 333, 332, 332, 331,
854, 334, 335, 332, 331,
856, 333, 331, 332, 330,
858, 333, 331, 330, 330,
860, 333, 332, 332, 331,
863, 333, 332, 332, 331,
865, 334, 331, 332, 332,
867, 333, 331, 332, 331,
869, 334, 332, 335, 331,
872, 332, 332, 331, 331,
874, 332, 332, 332, 331,
876, 333, 332, 331, 331,
878, 333, 332, 333, 331,
880, 332, 332, 332, 332,
883, 332, 332, 331, 331,
885, 332, 332, 332, 331,
887, 332, 332, 331, 331,
889, 333, 332, 332, 331,
892, 333, 332, 331, 331,
894, 333, 332, 332, 331,
897, 332, 332, 332, 331,
899, 332, 332, 332, 331,
902, 332, 332, 332, 331,
904, 333, 332, 332, 331,
906, 333, 332, 332, 332,
908, 332, 332, 332, 331,
911, 332, 332, 331, 331,
913, 332, 332, 332, 331,
915, 332, 332, 332, 330,
917, 332, 331, 333, 331,
920, 332, 332, 332, 331,
922, 331, 332, 332, 331,
924, 332, 332, 332, 331,
926, 332, 332, 333, 331,
929, 332, 332, 332, 331,
931, 330, 332, 333, 332,
933, 332, 332, 332, 331,
935, 332, 332, 333, 331,
939, 332, 332, 332, 331,
941, 332, 332, 333, 332,
943, 332, 331, 333, 332,
945, 332, 332, 333, 332,
947, 332, 331, 332, 331,
950, 332, 332, 332, 331,
952, 332, 332, 333, 332,
954, 332, 331, 333, 331,
956, 332, 331, 333, 332,
959, 330, 332, 333, 331,
961, 331, 332, 334, 330,
963, 331, 332, 333, 331,
965, 332, 331, 333, 331,
968, 331, 331, 333, 331,
970, 330, 331, 333, 331,
972, 331, 331, 333, 331,
974, 331, 331, 334, 331,
977, 331, 330, 334, 331,
979, 332, 331, 334, 332,
982, 331, 331, 334, 331,
984, 332, 332, 334, 332,
987, 331, 332, 333, 331,
989, 331, 332, 333, 331,
991, 332, 332, 333, 332,
993, 331, 332, 333, 330,
996, 332, 332, 333, 331,
998, 330, 332, 332, 332,
1000, 331, 332, 333, 333,
1002, 332, 332, 332, 334,
1005, 331, 332, 332, 332,
1007, 331, 332, 333, 332,
1009, 331, 332, 332, 332,
1012, 331, 333, 332, 330,
1014, 331, 332, 332, 333,
1016, 331, 332, 335, 333,
1019, 331, 332, 332, 332,
1021, 331, 333, 333, 332,
1024, 331, 332, 332, 333,
1027, 332, 332, 332, 333,
1029, 331, 332, 333, 332,
1031, 331, 330, 334, 333,
1034, 331, 336, 333, 334,
1036, 331, 332, 332, 334,
1038, 331, 331, 332, 333,
1041, 331, 332, 334, 332,
1043, 331, 332, 333, 332,
1045, 331, 332, 334, 333,
1048, 331, 331, 333, 333,
1050, 334, 332, 333, 333,
1052, 330, 332, 334, 332,
1054, 331, 331, 333, 333,
1057, 331, 331, 333, 334,
1059, 331, 331, 334, 333,
1061, 331, 332, 333, 333,
1064, 331, 331, 333, 333,
1067, 331, 331, 333, 334,
1069, 330, 332, 333, 334,
1072, 330, 331, 334, 334,
1074, 330, 332, 334, 333,
1076, 331, 331, 333, 334,
1079, 330, 332, 333, 334,
1081, 330, 331, 333, 334,
1083, 329, 331, 333, 334,
1086, 330, 333, 333, 334,
1088, 329, 331, 333, 332,
1090, 330, 332, 333, 334,
1093, 330, 332, 332, 334,
1095, 329, 332, 333, 334,
1097, 329, 332, 333, 334,
1100, 330, 332, 332, 335,
1102, 330, 331, 333, 337,
1104, 330, 332, 333, 334,
1107, 329, 332, 333, 335,
1110, 330, 332, 333, 335,
1112, 330, 332, 333, 335,
1115, 329, 332, 333, 335,
1117, 329, 331, 334, 334,
1119, 330, 332, 332, 335,
1122, 330, 332, 333, 335,
1124, 330, 332, 333, 335,
1126, 330, 331, 331, 335,
1129, 329, 332, 333, 334,
1131, 330, 332, 332, 332,
1133, 330, 331, 332, 335,
1136, 330, 331, 332, 335,
1138, 330, 331, 332, 334,
1140, 327, 332, 332, 334,
1142, 330, 331, 332, 335,
1145, 330, 331, 332, 335,
1147, 330, 332, 332, 335,
1149, 329, 332, 333, 334,
1153, 332, 331, 332, 334,
1155, 329, 331, 332, 336,
1157, 329, 331, 332, 335,
1160, 329, 331, 332, 335,
1162, 329, 331, 332, 334,
1164, 330, 331, 332, 334,
1167, 329, 331, 332, 335,
1169, 329, 331, 332, 335,
1171, 329, 331, 332, 334,
1174, 329, 332, 332, 334,
1176, 329, 331, 331, 335,
1178, 329, 330, 332, 335,
1181, 328, 331, 332, 334,
1183, 329, 332, 332, 334,
1185, 329, 330, 331, 335,
1188, 329, 331, 331, 335,
1190, 328, 330, 332, 335,
1192, 327, 331, 332, 334,
1196, 328, 331, 332, 335,
1198, 328, 330, 332, 335,
1200, 328, 330, 332, 335,
1203, 329, 331, 331, 334,
1205, 328, 331, 332, 334,
1207, 327, 331, 332, 333,
1210, 328, 331, 332, 334,
1212, 329, 330, 333, 334,
1214, 328, 331, 333, 334,
1217, 328, 331, 332, 335,
1219, 329, 331, 332, 335,
1221, 329, 330, 331, 335,
1224, 328, 330, 332, 334,
1226, 330, 331, 333, 334,
1228, 329, 330, 333, 335,
1230, 329, 330, 332, 334,
1233, 329, 330, 333, 335,
1235, 329, 331, 333, 334,
1238, 329, 330, 333, 334,
1241, 329, 331, 333, 336,
1243, 329, 331, 334, 334,
1245, 330, 330, 334, 334,
1248, 329, 331, 334, 334,
1250, 330, 331, 334, 334,
1252, 330, 330, 333, 334,
1255, 329, 331, 333, 334,
1257, 330, 331, 334, 334,
1259, 330, 331, 334, 333,
1262, 331, 331, 334, 334,
1264, 331, 331, 334, 334,
1266, 330, 331, 335, 334,
1269, 330, 330, 335, 333,
1271, 330, 331, 334, 334,
1273, 331, 331, 334, 333,
1276, 331, 331, 334, 333,
1278, 331, 331, 336, 338,
1281, 331, 331, 334, 332,
1284, 330, 332, 335, 333,
1286, 331, 332, 333, 333,
1288, 331, 331, 333, 333,
1291, 331, 332, 334, 332,
1293, 331, 333, 334, 332,
1295, 331, 332, 336, 334,
1298, 331, 332, 334, 333,
1300, 331, 333, 333, 333,
1302, 331, 332, 334, 333,
1305, 331, 333, 334, 333,
1307, 332, 333, 333, 334,
1309, 331, 332, 334, 333,
1312, 330, 334, 333, 332,
1314, 331, 333, 333, 334,
1316, 332, 333, 332, 335,
1318, 332, 332, 333, 333,
1321, 332, 333, 334, 333,
1324, 331, 333, 334, 333,
1326, 332, 333, 334, 333,
1329, 334, 332, 334, 333,
1331, 331, 332, 333, 333,
1333, 331, 333, 333, 332,
1336, 331, 334, 333, 332,
1338, 332, 332, 333, 333,
1340, 331, 332, 333, 333,
1343, 331, 332, 333, 333,
1345, 331, 333, 332, 333,
1347, 332, 333, 332, 333,
1350, 332, 333, 332, 333,
1352, 331, 333, 333, 333,
1354, 330, 333, 333, 333,
1357, 331, 333, 332, 332,
1359, 331, 333, 332, 334,
1361, 331, 332, 332, 333,
1364, 331, 333, 330, 332,
1367, 331, 334, 333, 332,
1369, 331, 333, 333, 330,
1372, 331, 333, 332, 333,
1374, 331, 334, 332, 332,
1376, 331, 333, 332, 332,
1379, 331, 334, 332, 333,
1381, 331, 333, 332, 333,
1383, 331, 333, 331, 334,
1386, 331, 333, 332, 332,
1388, 331, 332, 331, 332,
1390, 331, 333, 332, 333,
1393, 331, 333, 332, 332,
1395, 331, 333, 332, 332,
1397, 331, 333, 332, 332,
1400, 331, 333, 332, 332,
1402, 331, 333, 331, 332,
1404, 331, 332, 332, 332,
1406, 330, 332, 331, 332,
1410, 330, 334, 331, 331,
1412, 330, 333, 331, 331,
1414, 331, 331, 331, 331,
1417, 331, 333, 332, 332,
1419, 331, 333, 332, 331,
1421, 331, 333, 331, 331,
1424, 331, 333, 331, 332,
1426, 331, 332, 331, 331,
1428, 329, 333, 332, 331,
1431, 330, 333, 331, 331,
1433, 330, 333, 331, 331,
1435, 330, 333, 331, 332,
1438, 331, 332, 331, 331,
1440, 331, 333, 332, 331,
1442, 331, 333, 332, 331,
1445, 330, 333, 332, 329,
1447, 331, 332, 331, 331,
1449, 330, 332, 332, 331,
1453, 331, 332, 332, 330,
1455, 330, 333, 332, 332,
1457, 331, 332, 332, 331,
1460, 331, 333, 331, 330,
1462, 331, 332, 332, 330,
1464, 331, 332, 333, 330,
1467, 332, 332, 332, 331,
1469, 332, 332, 332, 331,
1471, 331, 332, 335, 330,
1474, 331, 332, 333, 330,
1476, 332, 332, 332, 329,
1478, 331, 332, 332, 331,
1481, 331, 330, 332, 330,
1483, 331, 331, 332, 329,
1485, 331, 332, 333, 329,
1488, 332, 335, 332, 330,
1490, 332, 331, 332, 330,
1492, 331, 331, 333, 329,
1495, 332, 332, 332, 330,
1498, 332, 333, 332, 329,
1500, 332, 331, 332, 330,
1502, 331, 331, 331, 330,
1505, 335, 331, 331, 330,
1507, 331, 332, 331, 330,
1509, 332, 331, 331, 331,
1512, 331, 332, 332, 331,
1514, 331, 331, 332, 330,
1516, 332, 332, 332, 330,
1519, 331, 332, 332, 329,
1521, 332, 331, 331, 330,
1523, 331, 331, 332, 330,
1526, 332, 331, 331, 330,
1528, 331, 331, 332, 330,
1530, 332, 331, 332, 330,
1533, 332, 331, 332, 331,
1536, 331, 331, 332, 331,
1538, 332, 331, 332, 330,
1541, 331, 332, 332, 330,
1543, 332, 331, 332, 330,
1545, 331, 331, 333, 330,
1548, 331, 331, 332, 331,
1550, 331, 331, 332, 331,
1552, 331, 332, 332, 331,
1555, 332, 331, 331, 331,
1557, 331, 331, 331, 332,
1559, 331, 331, 330, 331,
1562, 331, 331, 331, 331,
1564, 331, 331, 331, 329,
1566, 331, 331, 331, 331,
1569, 331, 330, 332, 331,
1571, 331, 331, 332, 331,
1573, 331, 331, 332, 331,
1575, 331, 331, 331, 331,
1579, 331, 332, 331, 331,
1581, 331, 331, 332, 331,
1583, 331, 331, 332, 331,
1586, 331, 331, 332, 332,
1588, 332, 331, 331, 332,
1590, 331, 333, 332, 332,
1593, 331, 331, 332, 331,
1595, 331, 331, 331, 330,
1597, 331, 331, 331, 333,
1600, 331, 331, 332, 332,
1602, 331, 331, 332, 331,
1604, 332, 331, 331, 331,
1607, 331, 331, 332, 331,
1609, 331, 331, 332, 333,
1611, 331, 331, 333, 331,
1614, 331, 330, 333, 332,
1616, 331, 331, 331, 332,
1618, 331, 331, 332, 333,
1622, 331, 331, 331, 332,
1624, 331, 332, 332, 332,
1626, 330, 331, 332, 332,
1629, 331, 332, 331, 333,
1631, 330, 331, 332, 337,
1633, 330, 331, 332, 332,
1636, 331, 331, 332, 333,
1638, 330, 332, 332, 332,
1640, 331, 331, 331, 331,
1643, 330, 331, 330, 333,
1645, 330, 331, 331, 332,
1647, 330, 332, 332, 332,
1650, 330, 332, 331, 333,
1652, 330, 331, 330, 333,
1654, 330, 331, 331, 332,
1657, 330, 331, 331, 331,
1659, 330, 331, 331, 331,
1661, 330, 331, 330, 332,
1664, 330, 332, 331, 332,
1667, 330, 331, 331, 332,
1669, 330, 332, 331, 332,
1671, 330, 331, 331, 333,
1674, 330, 332, 331, 334,
1676, 330, 330, 330, 332,
1678, 330, 332, 332, 331,
1681, 331, 332, 330, 332,
1683, 330, 331, 331, 330,
1685, 330, 331, 332, 332,
1688, 330, 331, 331, 332,
1690, 330, 331, 331, 332,
1692, 330, 331, 331, 332,
1695, 330, 331, 330, 333,
1697, 330, 331, 330, 332,
1699, 330, 332, 331, 331,
1702, 330, 330, 332, 331,
1704, 330, 331, 330, 331,
1707, 330, 331, 331, 332,
1710, 329, 333, 331, 332,
1712, 330, 331, 332, 331,
1714, 331, 332, 331, 330,
1717, 330, 332, 331, 332,
1719, 330, 331, 330, 332,
1721, 331, 331, 332, 331,
1724, 330, 332, 332, 331,
1726, 331, 331, 331, 331,
1728, 331, 331, 331, 332,
1731, 331, 331, 331, 331,
1733, 330, 330, 331, 334,
1735, 330, 331, 332, 331,
1738, 331, 332, 332, 332,
1740, 331, 332, 331, 332,
1742, 330, 331, 332, 332,
1745, 330, 332, 332, 330,
1747, 330, 332, 332, 332,
1750, 330, 331, 331, 333,
1752, 330, 331, 332, 332,
1755, 331, 333, 331, 331,
1757, 330, 331, 332, 332,
1759, 330, 331, 332, 332,
1762, 331, 331, 332, 332,
1764, 331, 330, 333, 332,
1766, 331, 334, 332, 333,
1769, 330, 332, 332, 331,
1771, 331, 331, 331, 333,
1773, 331, 331, 332, 332,
1776, 331, 330, 332, 332,
1778, 330, 331, 333, 332,
1780, 331, 331, 332, 333,
1783, 330, 331, 332, 333,
1785, 331, 332, 333, 332,
1787, 330, 331, 333, 332,
1790, 330, 331, 333, 332,
1793, 330, 332, 333, 334,
1795, 330, 330, 333, 332,
1798, 331, 331, 330, 332,
1800, 330, 332, 332, 332,
1802, 331, 331, 332, 331,
1805, 330, 331, 332, 333,
1807, 331, 331, 333, 332,
1809, 330, 331, 333, 332,
1812, 330, 332, 333, 332,
1814, 331, 331, 332, 333,
1816, 331, 331, 332, 333,
1819, 331, 331, 333, 332,
1821, 331, 330, 333, 332,
1823, 331, 332, 333, 333,
1826, 331, 331, 332, 333,
1828, 331, 331, 332, 333,
1830, 331, 331, 334, 332,
1833, 331, 331, 332, 333,
1836, 331, 332, 332, 333,
1838, 331, 331, 333, 333,
1840, 331, 332, 333, 333,
1843, 331, 332, 333, 333,
1845, 331, 332, 333, 332,
1847, 331, 332, 332, 333,
1850, 332, 331, 333, 333,
1852, 331, 332, 331, 333,
1854, 331, 332, 332, 332,
1857, 332, 332, 332, 334,
1859, 332, 332, 331, 333,
1861, 330, 332, 332, 333,
1864, 331, 332, 333, 333,
1866, 331, 332, 332, 333,
1868, 331, 331, 332, 334,
1871, 331, 332, 332, 333,
1873, 331, 332, 332, 333,
1875, 332, 332, 332, 333,
1879, 332, 332, 332, 332,
1881, 332, 331, 331, 333,
1883, 331, 330, 332, 333,
1886, 332, 331, 332, 333,
1888, 331, 332, 332, 332,
1890, 331, 331, 331, 334,
1893, 332, 331, 332, 334,
1895, 332, 331, 332, 334,
1897, 331, 331, 332, 333,
1900, 332, 332, 332, 335,
1902, 331, 331, 332, 335,
1904, 331, 331, 332, 334,
1907, 331, 331, 333, 334,
1909, 331, 331, 332, 335,
1911, 331, 331, 332, 336,
1914, 331, 331, 332, 334,
1916, 332, 331, 332, 334,
1918, 331, 332, 332, 334,
1922, 332, 331, 332, 335,
1924, 331, 331, 332, 335,
1926, 332, 331, 335, 334,
1928, 331, 332, 332, 335,
1931, 332, 331, 332, 334,
1933, 332, 332, 332, 335,
1935, 332, 332, 332, 335,
1938, 331, 332, 332, 334,
1940, 332, 332, 332, 335,
1942, 332, 334, 332, 336,
1945, 332, 332, 332, 336,
1947, 332, 332, 332, 335,
1949, 331, 333, 332, 335,
1952, 331, 333, 332, 334,
1954, 331, 332, 332, 335,
1956, 331, 331, 332, 335,
1959, 333, 332, 332, 336,
1961, 331, 332, 332, 335,
1964, 332, 332, 332, 335,
1967, 332, 332, 332, 336,
1969, 332, 332, 332, 335,
1971, 332, 332, 333, 335,
1974, 331, 333, 333, 335,
1976, 332, 332, 332, 336,
1978, 331, 332, 332, 336,
1981, 331, 332, 333, 335,
1983, 331, 331, 334, 335,
1985, 331, 333, 332, 336,
1988, 331, 333, 332, 336,
1990, 331, 332, 332, 335,
1992, 331, 332, 331, 335,
1995, 331, 332, 332, 335,
1997, 331, 332, 332, 333,
1999, 332, 332, 333, 336,
2002, 332, 331, 333, 335,
2004, 332, 332, 333, 335,
2007, 331, 333, 332, 334,
2010, 332, 331, 332, 335,
2012, 332, 331, 332, 335,
2014, 332, 332, 332, 335,
2016, 332, 332, 332, 335,
2019, 332, 332, 332, 335,
2021, 331, 332, 332, 336,
2023, 331, 331, 333, 335,
2026, 332, 331, 333, 335,
2028, 332, 332, 332, 335,
2030, 332, 331, 332, 334,
2033, 332, 331, 333, 335,
2035, 332, 331, 333, 335,
2037, 331, 332, 333, 334,
2040, 332, 333, 333, 333,
2042, 332, 331, 332, 335,
2044, 332, 331, 333, 334,
2048, 331, 331, 333, 334,
2050, 332, 331, 332, 334,
2052, 332, 331, 332, 335,
2055, 332, 331, 333, 335,
2057, 332, 331, 333, 334,
2059, 331, 331, 333, 334,
2062, 331, 331, 332, 334,
2064, 332, 332, 333, 335,
2066, 332, 332, 333, 334,
2069, 331, 331, 334, 334,
2071, 332, 332, 333, 334,
2073, 332, 332, 333, 334,
2076, 332, 331, 332, 335,
2078, 332, 331, 332, 334,
2080, 332, 332, 333, 334,
2083, 332, 332, 333, 335,
2085, 332, 331, 332, 335,
2087, 332, 331, 333, 334,
2091, 333, 331, 333, 334,
2093, 332, 332, 333, 334,
2095, 332, 331, 333, 335,
2098, 332, 330, 332, 334,
2100, 332, 331, 333, 334,
2102, 332, 331, 336, 334,
2104, 332, 331, 333, 334,
2107, 332, 330, 333, 335,
2109, 332, 330, 333, 334,
2111, 332, 331, 333, 334,
2114, 332, 332, 332, 332,
2116, 331, 331, 333, 332,
2118, 332, 332, 333, 335,
2121, 332, 331, 333, 334,
2123, 332, 331, 333, 334,
2125, 332, 331, 333, 333,
2128, 332, 331, 333, 335,
2130, 332, 330, 332, 334,
2132, 333, 331, 333, 334,
2136, 334, 331, 333, 334,
2138, 332, 331, 332, 334,
2140, 332, 331, 332, 334,
2143, 332, 330, 332, 334,
2145, 332, 331, 334, 333,
2147, 332, 329, 333, 334,
2150, 332, 331, 333, 333,
2152, 333, 331, 333, 334,
2154, 332, 330, 333, 333,
2157, 332, 331, 334, 333,
2159, 332, 331, 333, 333,
2161, 332, 330, 333, 334,
2164, 332, 331, 333, 333,
2166, 332, 330, 334, 333,
2168, 332, 332, 334, 333,
2171, 333, 330, 333, 334,
2173, 332, 330, 333, 333,
2176, 332, 330, 334, 332,
2179, 331, 330, 333, 332,
2181, 332, 330, 332, 334,
2183, 332, 330, 333, 332,
2185, 332, 330, 333, 333,
2188, 332, 330, 333, 337,
2190, 332, 330, 333, 332,
2192, 332, 331, 333, 334,
2195, 332, 330, 333, 333,
2197, 332, 330, 333, 333,
2199, 333, 331, 333, 333,
2202, 332, 332, 333, 333,
2204, 332, 330, 329, 334,
2206, 332, 330, 333, 333,
2209, 331, 330, 333, 333,
2211, 332, 331, 333, 333,
2213, 332, 331, 332, 334,
2216, 331, 331, 333, 334,
2219, 332, 331, 333, 333,
2221, 331, 330, 332, 334,
2224, 332, 332, 333, 333,
2226, 332, 331, 333, 335,
2228, 332, 331, 333, 333,
2231, 332, 331, 331, 333,
2233, 332, 332, 332, 334,
2235, 333, 331, 332, 332,
2238, 335, 332, 333, 334,
2240, 332, 331, 332, 333,
2242, 332, 331, 332, 333,
2245, 332, 332, 333, 333,
2247, 333, 332, 333, 334,
2249, 333, 331, 333, 333,
2252, 332, 331, 333, 333,
2254, 332, 330, 333, 333,
2256, 333, 332, 333, 334,
2259, 332, 332, 332, 333,
2262, 332, 331, 333, 334,
2264, 332, 331, 332, 333,
2267, 333, 331, 332, 333,
2269, 332, 332, 332, 335,
2271, 333, 332, 333, 333,
2273, 332, 331, 333, 333,
2276, 332, 332, 333, 332,
2278, 332, 331, 333, 332,
2280, 333, 331, 332, 333,
2283, 333, 332, 333, 333,
2285, 332, 332, 333, 333,
2287, 333, 332, 333, 332,
2290, 333, 331, 332, 332,
2292, 332, 331, 332, 333,
2294, 331, 332, 333, 333,
2297, 333, 331, 333, 333,
2299, 332, 332, 332, 332,
2301, 333, 332, 332, 333,
2305, 333, 331, 332, 332,
2307, 333, 332, 333, 333,
2309, 333, 332, 333, 332,
2312, 332, 333, 333, 332,
2314, 333, 331, 333, 333,
2316, 332, 331, 333, 332,
2319, 332, 332, 333, 332,
2321, 332, 333, 333, 332,
2323, 332, 331, 333, 332,
2326, 333, 331, 333, 332,
2328, 332, 331, 333, 332,
2330, 332, 332, 333, 332,
2333, 333, 332, 333, 332,
2335, 333, 332, 333, 332,
2337, 332, 331, 334, 331,
2340, 331, 331, 335, 331,
2342, 332, 332, 333, 331,
2344, 332, 330, 334, 333,
2348, 332, 332, 333, 332,
2350, 332, 331, 333, 331,
2352, 332, 332, 332, 331,
2355, 332, 331, 333, 332,
2357, 332, 331, 333, 332,
2359, 332, 331, 333, 331,
2361, 332, 332, 333, 332,
2364, 332, 333, 333, 336,
2366, 332, 331, 333, 332,
2368, 332, 332, 333, 331,
2371, 332, 331, 333, 331,
2373, 332, 332, 333, 331,
2375, 332, 332, 333, 332,
2378, 332, 331, 333, 332,
2380, 332, 332, 338, 331,
2382, 331, 332, 333, 331,
2385, 332, 332, 333, 330,
2387, 332, 331, 333, 332,
2390, 333, 332, 333, 331,
2393, 332, 331, 332, 331,
2395, 332, 332, 333, 330,
2397, 332, 331, 333, 330,
2400, 332, 331, 332, 332,
2402, 332, 330, 332, 331,
2404, 333, 331, 333, 331,
2407, 332, 332, 333, 331,
2409, 332, 332, 333, 331,
2411, 331, 331, 332, 331,
2414, 335, 331, 333, 331,
2416, 332, 330, 334, 330,
2418, 331, 332, 333, 330,
2421, 332, 332, 333, 331,
2423, 332, 331, 333, 330,
2425, 332, 331, 334, 330,
2428, 332, 332, 333, 330,
2430, 331, 332, 333, 329,
2433, 332, 332, 332, 331,
2436, 332, 331, 333, 330,
2438, 332, 332, 333, 331,
2440, 332, 330, 333, 330,
2443, 332, 332, 333, 330,
2445, 332, 331, 333, 331,
2447, 332, 331, 333, 330,
2449, 332, 332, 333, 331,
2452, 332, 332, 332, 331,
2454, 332, 331, 333, 329,
2456, 330, 332, 333, 330,
2459, 331, 331, 333, 330,
2461, 331, 332, 332, 330,
2463, 332, 331, 332, 332,
2466, 332, 332, 333, 331,
2468, 331, 332, 333, 330,
2470, 332, 332, 333, 331,
2473, 332, 332, 333, 329,
2476, 332, 332, 333, 331,
2478, 332, 331, 333, 331,
2481, 332, 332, 333, 331,
2483, 332, 332, 331, 331,
2485, 332, 332, 332, 332,
2488, 332, 332, 334, 331,
2490, 332, 331, 333, 331,
2492, 332, 332, 333, 331,
2495, 332, 332, 333, 332,
2497, 332, 332, 333, 332,
2499, 331, 332, 333, 331,
2502, 332, 331, 334, 330,
2504, 332, 332, 333, 330,
2506, 331, 332, 333, 332,
2509, 332, 332, 332, 331,
2511, 331, 331, 332, 331,
2513, 331, 332, 333, 331,
2516, 331, 333, 333, 331,
2519, 332, 332, 332, 331,
2521, 332, 332, 332, 331,
2524, 333, 332, 333, 331,
2526, 332, 333, 333, 331,
2528, 332, 332, 333, 331,
2531, 332, 332, 332, 331,
2533, 332, 332, 332, 331,
2535, 332, 331, 333, 331,
2537, 332, 332, 333, 331,
2540, 332, 332, 332, 332,
2542, 332, 331, 333, 331,
2544, 332, 331, 333, 330,
2547, 332, 332, 333, 330,
2549, 331, 332, 333, 330,
2551, 332, 332, 333, 331,
2554, 332, 331, 333, 331,
2556, 332, 332, 335, 330,
2558, 332, 331, 333, 330,
2562, 332, 331, 334, 331,
2564, 332, 331, 333, 331,
2566, 332, 331, 333, 331,
2569, 332, 331, 334, 329,
2571, 332, 331, 333, 332,
2573, 332, 333, 333, 331,
2576, 331, 331, 333, 331,
2578, 332, 331, 335, 331,
2580, 332, 331, 333, 330,
2583, 332, 332, 334, 333,
2585, 332, 331, 332, 332,
2587, 332, 331, 334, 331,
2590, 333, 331, 334, 331,
2592, 332, 332, 333, 330,
2594, 332, 331, 333, 332,
2597, 332, 331, 333, 331,
2599, 332, 331, 333, 331,
2601, 332, 332, 333, 331,
2605, 332, 331, 333, 332,
2607, 332, 331, 334, 332,
2609, 332, 331, 334, 331,
2612, 332, 332, 333, 331,
2614, 332, 332, 333, 332,
2616, 332, 331, 333, 333,
2619, 332, 331, 333, 331,
2621, 332, 331, 333, 331,
2623, 331, 331, 333, 330,
2625, 332, 331, 332, 332,
2628, 332, 331, 333, 332,
2630, 331, 330, 333, 331,
2632, 332, 331, 333, 332,
2635, 332, 332, 333, 331,
2637, 332, 330, 332, 331,
2639, 332, 331, 333, 332,
2642, 332, 330, 333, 334,
2644, 332, 331, 333, 331,
2647, 332, 331, 332, 332,
2650, 332, 331, 332, 332,
2652, 332, 331, 332, 331,
2654, 331, 331, 333, 331,
2657, 332, 332, 333, 331,
2659, 332, 331, 332, 331,
2661, 332, 330, 333, 331,
2664, 332, 332, 333, 331,
2666, 332, 331, 333, 331,
2668, 332, 331, 332, 329,
2671, 332, 331, 332, 331,
2673, 332, 331, 332, 331,
2675, 333, 334, 332, 331,
2678, 332, 333, 333, 332,
2680, 332, 331, 333, 332,
2682, 332, 331, 332, 332,
2685, 332, 331, 333, 331,
2688, 332, 331, 333, 331,
2690, 333, 332, 332, 332,
2693, 332, 331, 332, 331,
2695, 332, 331, 333, 331,
2697, 333, 331, 334, 331,
2700, 333, 331, 333, 331,
2702, 332, 331, 332, 332,
2704, 332, 331, 333, 332,
2707, 332, 331, 333, 330,
2709, 332, 331, 333, 330,
2711, 332, 331, 333, 330,
2713, 333, 330, 333, 331,
2716, 333, 331, 333, 331,
2718, 332, 331, 332, 331,
2720, 333, 331, 332, 331,
2723, 333, 331, 332, 332,
2725, 333, 331, 333, 331,
2727, 332, 330, 332, 331,
2731, 332, 330, 332, 331,
2733, 332, 331, 333, 331,
2735, 333, 331, 332, 332,
2738, 333, 331, 332, 331,
2740, 333, 332, 333, 331,
2742, 333, 331, 332, 330,
2745, 332, 332, 332, 330,
2747, 333, 331, 333, 331,
2749, 332, 332, 332, 331,
2752, 332, 332, 332, 330,
2754, 333, 332, 333, 330,
2756, 332, 331, 331, 332,
2759, 332, 331, 332, 333,
2761, 332, 330, 332, 331,
2763, 332, 332, 333, 331,
2766, 333, 331, 332, 332,
2768, 332, 331, 332, 332,
2770, 332, 331, 333, 331,
2774, 332, 330, 334, 331,
2776, 331, 332, 333, 332,
2778, 332, 330, 333, 332,
2781, 331, 331, 332, 332,
2783, 332, 331, 333, 332,
2785, 332, 332, 333, 332,
2788, 332, 331, 333, 332,
2790, 332, 331, 333, 334,
2792, 333, 330, 333, 333,
2794, 332, 331, 333, 333,
2797, 332, 332, 333, 332,
2799, 332, 330, 332, 334,
2801, 332, 330, 333, 333,
2804, 332, 330, 333, 333,
2806, 332, 331, 333, 333,
2808, 332, 331, 332, 334,
2811, 331, 331, 333, 332,
2813, 331, 331, 333, 333,
2816, 331, 331, 333, 333,
2819, 331, 331, 333, 336,
2821, 331, 331, 333, 334,
2823, 331, 331, 333, 334,
2826, 331, 331, 331, 333,
2828, 331, 331, 333, 333,
2830, 331, 331, 333, 333,
2833, 332, 331, 333, 334,
2835, 332, 330, 334, 333,
2837, 332, 331, 333, 333,
2840, 332, 332, 333, 333,
2842, 332, 331, 333, 335,
2844, 331, 330, 332, 334,
2847, 331, 331, 334, 334,
2849, 331, 330, 334, 334,
2851, 332, 334, 333, 335,
2854, 332, 331, 333, 334,
2856, 331, 330, 334, 334,
2859, 331, 330, 334, 334,
2862, 332, 331, 333, 333,
2864, 331, 331, 333, 334,
2866, 332, 331, 333, 334,
2869, 333, 332, 334, 335,
2871, 330, 332, 333, 334,
2873, 331, 332, 334, 334,
2876, 331, 331, 332, 334,
2878, 331, 331, 334, 334,
2880, 330, 331, 334, 334,
2882, 330, 331, 334, 335,
2885, 331, 331, 333, 335,
2887, 329, 331, 333, 333,
2889, 329, 332, 333, 334,
2892, 330, 331, 333, 334,
2894, 330, 331, 333, 334,
2896, 331, 331, 333, 335,
2899, 330, 331, 333, 334,
2902, 331, 331, 333, 334,
2904, 330, 331, 333, 333,
2907, 330, 332, 333, 334,
2909, 330, 331, 333, 334,
2911, 330, 330, 333, 334,
2914, 330, 332, 333, 334,
2916, 330, 331, 333, 334,
2918, 330, 331, 333, 335,
2921, 330, 331, 333, 334,
2923, 330, 332, 333, 334,
2925, 329, 332, 333, 334,
2928, 330, 332, 333, 335,
2930, 330, 332, 333, 335,
2932, 330, 332, 333, 335,
2935, 330, 331, 334, 334,
2937, 330, 332, 333, 335,
2939, 329, 332, 333, 336,
2942, 330, 331, 332, 335,
2945, 330, 331, 332, 335,
2947, 330, 332, 333, 334,
2950, 330, 332, 333, 335,
2952, 330, 332, 333, 335,
2954, 330, 331, 333, 336,
2957, 329, 330, 333, 334,
2959, 328, 332, 333, 334,
2961, 330, 332, 333, 335,
2964, 329, 331, 332, 335,
2966, 329, 331, 333, 334,
2968, 329, 332, 333, 334,
2970, 329, 331, 332, 335,
2973, 329, 332, 332, 336,
2975, 329, 331, 333, 335,
2977, 329, 332, 333, 334,
2980, 329, 332, 333, 334,
2982, 328, 331, 334, 334,
2984, 329, 331, 333, 335,
2988, 329, 333, 333, 334,
2990, 328, 332, 333, 334,
2992, 329, 332, 333, 334,
2995, 329, 332, 332, 337,
2997, 329, 332, 333, 334,
2999, 328, 332, 333, 334,
3002, 328, 332, 333, 334,
3004, 329, 331, 333, 335,
3006, 328, 331, 332, 333,
3009, 328, 331, 333, 334,
3011, 328, 331, 338, 335,
3013, 328, 332, 333, 334,
3016, 328, 332, 333, 336,
3018, 328, 332, 332, 334,
3020, 327, 332, 333, 334,
3023, 327, 333, 333, 333,
3025, 327, 333, 333, 332,
3027, 327, 335, 332, 335,
3031, 327, 333, 332, 334,
3033, 326, 333, 333, 334,
3035, 326, 333, 333, 334,
3038, 326, 333, 333, 335,
3040, 326, 333, 332, 334,
3042, 326, 333, 334, 334,
3045, 330, 334, 333, 334,
3047, 326, 334, 333, 334,
3049, 325, 333, 332, 335,
3052, 325, 334, 333, 334,
3054, 325, 334, 333, 334,
3056, 324, 332, 333, 334,
3058, 325, 333, 332, 334,
3061, 325, 333, 333, 334,
3063, 324, 333, 333, 334,
3065, 325, 334, 332, 334,
3068, 323, 334, 332, 334,
3070, 324, 333, 332, 334,
3073, 324, 334, 332, 333,
3076, 324, 333, 332, 334,
3078, 324, 334, 332, 333,
3080, 324, 333, 332, 334,
3083, 324, 334, 332, 334,
3085, 323, 333, 332, 333,
3087, 322, 334, 332, 333,
3090, 323, 334, 332, 334,
3092, 323, 334, 332, 334,
3094, 323, 334, 332, 333,
3097, 323, 333, 332, 333,
3099, 322, 334, 332, 332,
3101, 323, 334, 332, 331,
3104, 322, 333, 331, 333,
3106, 322, 333, 331, 333,
3108, 322, 334, 331, 332,
3111, 322, 332, 333, 332,
3113, 322, 334, 331, 333,
3116, 322, 333, 331, 333,
3119, 322, 334, 332, 332,
3121, 321, 333, 332, 332,
3123, 321, 333, 331, 333,
3126, 321, 333, 331, 332,
3128, 321, 333, 332, 333,
3130, 321, 333, 331, 332,
3133, 320, 334, 331, 333,
3135, 321, 334, 331, 334,
3137, 320, 334, 332, 333,
3140, 320, 334, 331, 332,
3142, 320, 334, 331, 333,
3144, 320, 334, 331, 330,
3146, 319, 334, 332, 332,
3149, 319, 333, 332, 332,
3151, 319, 334, 332, 332,
3153, 319, 333, 331, 333,
3156, 319, 334, 331, 333,
3159, 319, 333, 332, 332,
3161, 318, 334, 332, 332,
3164, 318, 334, 331, 332,
3166, 318, 334, 331, 333,
3168, 318, 333, 332, 333,
3171, 318, 333, 331, 333,
3173, 317, 334, 332, 332,
3175, 318, 333, 331, 332,
3178, 317, 333, 331, 332,
3180, 317, 332, 332, 332,
3182, 317, 332, 331, 332,
3185, 317, 333, 331, 331,
3187, 316, 333, 336, 331,
3189, 317, 333, 330, 332,
3192, 317, 333, 330, 332,
3194, 316, 332, 331, 331,
3196, 316, 333, 331, 331,
3200, 317, 333, 331, 331,
3202, 316, 333, 331, 332,
3204, 315, 334, 331, 331,
3207, 315, 332, 332, 330,
3209, 316, 333, 330, 332,
3211, 315, 333, 331, 333,
3214, 315, 333, 330, 331,
3216, 314, 333, 329, 331,
3218, 314, 333, 331, 331,
3221, 315, 333, 330, 332,
3223, 314, 333, 331, 332,
3225, 313, 333, 330, 331,
3228, 314, 333, 330, 332,
3230, 313, 334, 330, 331,
3232, 314, 332, 331, 332,
3234, 313, 332, 330, 331,
3237, 313, 332, 330, 331,
3239, 312, 334, 330, 331,
3241, 310, 333, 330, 332,
3245, 312, 333, 330, 331,
3247, 311, 334, 330, 331,
3249, 310, 333, 330, 331,
3252, 311, 333, 330, 331,
3254, 310, 333, 330, 333,
3256, 311, 331, 330, 332,
3259, 311, 333, 330, 331,
3261, 310, 333, 330, 332,
3263, 310, 333, 330, 330,
3266, 310, 333, 330, 332,
3268, 309, 332, 330, 332,
3270, 309, 333, 330, 331,
3273, 308, 334, 331, 336,
3275, 309, 333, 330, 331,
3277, 308, 333, 330, 332,
3280, 308, 332, 331, 331,
3282, 307, 331, 331, 331,
3284, 307, 333, 330, 332,
3288, 307, 333, 330, 331,
3290, 306, 333, 329, 331,
3292, 305, 332, 331, 331,
3295, 305, 333, 331, 330,
3297, 305, 333, 330, 331,
3299, 305, 332, 330, 331,
3302, 305, 332, 330, 331,
3304, 304, 332, 331, 331,
3306, 304, 335, 331, 333,
3309, 304, 332, 330, 331,
3311, 304, 332, 331, 331,
3313, 303, 331, 331, 331,
3316, 303, 332, 331, 332,
3318, 303, 332, 330, 332,
3320, 303, 331, 330, 332,
3322, 305, 331, 331, 331,
3325, 302, 331, 331, 331,
3328, 300, 332, 330, 332,
3330, 301, 331, 330, 333,
3333, 301, 332, 331, 332,
3335, 300, 332, 331, 331,
3337, 300, 332, 331, 331,
3340, 299, 333, 330, 330,
3342, 299, 331, 331, 332,
3344, 299, 331, 331, 331,
3347, 298, 333, 331, 332,
3349, 298, 332, 330, 332,
3351, 298, 331, 331, 333,
3354, 298, 332, 330, 332,
3356, 297, 332, 330, 332,
3358, 297, 332, 330, 332,
3361, 297, 332, 330, 333,
3363, 297, 332, 331, 333,
3365, 295, 333, 330, 332,
3368, 295, 332, 331, 332,
3371, 294, 333, 330, 331,
3373, 295, 332, 330, 334,
3376, 294, 332, 329, 332,
3378, 293, 332, 328, 332,
3380, 293, 333, 329, 332,
3383, 292, 333, 329, 333,
3385, 292, 333, 329, 333,
3387, 291, 332, 329, 333,
3390, 291, 332, 329, 332,
3392, 291, 334, 327, 332,
3394, 291, 333, 328, 332,
3397, 291, 332, 328, 333,
3399, 290, 332, 329, 333,
3401, 290, 333, 328, 333,
3403, 290, 333, 328, 333,
3406, 289, 333, 328, 334,
3408, 289, 332, 328, 333,
3410, 288, 333, 328, 332,
3414, 289, 333, 327, 332,
3416, 287, 333, 327, 332,
3418, 288, 332, 328, 333,
3421, 288, 332, 328, 334,
3423, 287, 332, 327, 332,
3425, 286, 334, 327, 333,
3428, 287, 333, 326, 333,
3430, 286, 332, 327, 333,
3432, 287, 333, 327, 333,
3435, 285, 333, 327, 333,
3437, 285, 332, 326, 333,
3439, 285, 332, 326, 333,
3442, 284, 331, 326, 333,
3444, 283, 332, 326, 332,
3446, 283, 332, 326, 333,
3449, 282, 332, 325, 337,
3451, 282, 332, 326, 333,
3453, 281, 331, 325, 333,
3457, 280, 332, 326, 333,
3459, 280, 331, 325, 331,
3461, 279, 331, 325, 333,
3464, 279, 331, 324, 332,
3466, 278, 332, 328, 333,
3468, 277, 333, 324, 332,
3471, 276, 331, 324, 333,
3473, 276, 331, 324, 333,
3475, 275, 331, 324, 332,
3478, 275, 330, 324, 332,
3480, 274, 332, 323, 333,
3482, 273, 336, 324, 332,
3485, 272, 333, 323, 332,
3487, 272, 332, 323, 332,
3489, 272, 332, 322, 331,
3491, 271, 332, 322, 333,
3494, 272, 332, 321, 333,
3496, 272, 332, 322, 332,
3499, 275, 332, 321, 333,
3502, 271, 333, 321, 332,
3504, 271, 330, 321, 333,
3506, 270, 332, 321, 333,
3509, 270, 331, 320, 332,
3511, 269, 332, 320, 331,
3513, 269, 331, 320, 333,
3516, 269, 331, 319, 333,
3518, 269, 332, 320, 332,
3520, 267, 332, 320, 332,
3523, 267, 332, 319, 332,
3525, 267, 331, 319, 333,
3527, 267, 331, 319, 332,
3530, 266, 331, 319, 331,
3532, 266, 331, 319, 331,
3534, 265, 331, 319, 330,
3537, 264, 331, 318, 332,
3539, 264, 331, 319, 331,
3542, 264, 331, 318, 330,
3545, 263, 332, 318, 331,
3547, 263, 331, 318, 332,
3549, 263, 331, 318, 331,
3552, 262, 330, 318, 331,
3554, 261, 331, 318, 331,
3556, 261, 331, 317, 331,
3559, 261, 331, 317, 332,
3561, 260, 330, 317, 331,
3563, 259, 330, 318, 331,
3566, 259, 331, 317, 331,
3568, 259, 331, 316, 331,
3570, 259, 330, 316, 331,
3573, 259, 330, 317, 331,
3575, 258, 331, 316, 331,
3577, 258, 331, 316, 330,
3579, 257, 330, 316, 331,
3582, 257, 330, 316, 331,
3585, 256, 330, 316, 330,
3587, 256, 331, 315, 332,
3590, 256, 331, 315, 332,
3592, 256, 330, 315, 331,
3594, 256, 331, 315, 331,
3597, 255, 329, 315, 330,
3599, 255, 330, 315, 329,
3601, 253, 330, 315, 328,
3604, 253, 330, 315, 327,
3606, 253, 330, 314, 328,
3608, 253, 330, 314, 328,
3611, 252, 330, 314, 330,
3613, 253, 329, 313, 330,
3615, 252, 330, 314, 330,
3618, 253, 331, 314, 330,
3620, 252, 331, 313, 329,
3622, 252, 330, 313, 331,
3625, 251, 330, 313, 331,
3628, 251, 329, 313, 330,
3630, 250, 330, 312, 331,
3633, 250, 330, 313, 331,
3635, 250, 330, 312, 331,
3637, 249, 329, 313, 331,
3640, 249, 328, 313, 329,
3642, 248, 329, 315, 330,
3644, 247, 330, 312, 332,
3647, 247, 330, 311, 331,
3649, 246, 329, 312, 330,
3651, 245, 330, 312, 330,
3654, 245, 330, 312, 330,
3656, 243, 330, 312, 331,
3658, 243, 332, 313, 331,
3661, 243, 330, 312, 331,
3663, 242, 331, 311, 330,
3665, 241, 330, 310, 331,
3667, 239, 329, 311, 330,
3671, 237, 329, 310, 331,
3673, 236, 330, 311, 330,
3675, 237, 329, 311, 331,
3678, 231, 329, 311, 331,
3680, 229, 330, 311, 330,
3682, 225, 329, 311, 330,
3685, 222, 330, 310, 330,
3687, 218, 328, 311, 330,
3689, 214, 328, 311, 330,
3692, 211, 329, 308, 330,
3694, 208, 329, 310, 330,
3696, 204, 329, 310, 328,
3699, 200, 329, 310, 330,
3701, 196, 328, 310, 330,
3703, 192, 329, 310, 330,
3706, 188, 330, 310, 330,
3708, 184, 329, 309, 331,
3710, 181, 328, 309, 331,
3714, 177, 328, 310, 330,
3716, 173, 327, 310, 332,
3718, 170, 329, 308, 331,
3721, 167, 329, 309, 331,
3723, 163, 328, 308, 331,
3725, 160, 329, 309, 331,
3728, 157, 329, 308, 330,
3730, 153, 329, 308, 332,
3732, 151, 329, 307, 331,
3735, 149, 328, 306, 331,
3737, 146, 329, 307, 331,
3739, 142, 329, 307, 330,
3742, 140, 328, 306, 331,
3744, 138, 329, 307, 331,
3746, 135, 327, 307, 331,
3749, 133, 329, 306, 332,
3751, 131, 329, 306, 333,
3753, 128, 329, 305, 332,
3756, 127, 329, 306, 332,
3759, 126, 328, 306, 331,
3761, 124, 331, 305, 333,
3763, 123, 329, 305, 332,
3766, 121, 328, 305, 332,
3768, 120, 329, 305, 332,
3770, 119, 329, 305, 332,
3773, 117, 330, 305, 332,
3775, 117, 330, 305, 333,
3777, 116, 330, 304, 333,
3780, 116, 330, 305, 332,
3782, 116, 330, 304, 333,
3784, 115, 330, 303, 334,
3787, 116, 330, 304, 333,
3789, 115, 330, 304, 333,
3791, 115, 330, 303, 333,
3794, 115, 331, 304, 333,
3796, 116, 331, 303, 334,
3799, 117, 331, 303, 333,
3802, 116, 330, 304, 335,
3804, 117, 331, 303, 332,
3806, 117, 331, 302, 334,
3809, 119, 331, 302, 334,
3811, 120, 331, 300, 333,
3813, 120, 331, 303, 334,
3816, 122, 330, 302, 334,
3818, 123, 331, 302, 334,
3820, 124, 331, 302, 334,
3823, 125, 331, 302, 334,
3825, 126, 332, 302, 333,
3827, 129, 331, 302, 335,
3830, 129, 330, 301, 333,
3832, 131, 331, 302, 333,
3834, 133, 332, 303, 334,
3837, 135, 331, 302, 334,
3840, 136, 331, 302, 334,
3842, 138, 331, 302, 334,
3844, 140, 331, 303, 334,
3847, 142, 332, 301, 334,
3849, 143, 331, 302, 334,
3851, 146, 331, 303, 333,
3854, 147, 331, 303, 333,
3856, 149, 331, 303, 333,
3858, 152, 331, 303, 333,
3861, 153, 331, 302, 334,
3863, 156, 330, 303, 333,
3865, 158, 331, 303, 333,
3868, 159, 332, 304, 333,
3870, 162, 331, 304, 334,
3872, 163, 331, 303, 334,
3875, 165, 331, 305, 333,
3877, 167, 331, 305, 333,
3879, 168, 331, 304, 334,
3883, 172, 331, 305, 333,
3885, 174, 331, 304, 333,
3887, 176, 331, 306, 333,
3890, 178, 332, 306, 332,
3892, 180, 332, 306, 334,
3894, 182, 330, 307, 333,
3897, 184, 331, 307, 332,
3899, 186, 332, 308, 332,
3901, 188, 332, 308, 332,
3904, 191, 331, 308, 335,
3906, 193, 331, 308, 332,
3908, 195, 331, 310, 332,
3911, 197, 331, 308, 332,
3913, 200, 332, 309, 333,
3915, 201, 331, 310, 332,
3918, 203, 332, 310, 332,
3920, 206, 331, 313, 331,
3922, 207, 332, 311, 331,
3926, 210, 332, 312, 332,
3928, 211, 331, 313, 332,
3930, 214, 331, 313, 331,
3932, 216, 331, 313, 330,
3935, 218, 331, 314, 330,
3937, 220, 334, 314, 332,
3939, 222, 330, 316, 331,
3942, 224, 330, 316, 331,
3944, 226, 331, 316, 331,
3946, 228, 331, 316, 332,
3949, 230, 331, 316, 331,
3951, 232, 331, 318, 331,
3953, 238, 330, 319, 331,
3956, 235, 331, 319, 332,
3958, 237, 331, 320, 332,
3960, 239, 331, 320, 331,
3963, 241, 331, 322, 331,
3965, 243, 331, 322, 332,
3968, 245, 331, 322, 330,
3971, 246, 331, 322, 331,
3973, 248, 331, 322, 331,
3975, 250, 332, 324, 331,
3978, 251, 332, 324, 331,
3980, 253, 331, 324, 331,
3982, 255, 332, 325, 330,
3985, 257, 330, 326, 330,
3987, 259, 332, 327, 330,
3989, 261, 332, 327, 331,
3992, 262, 331, 327, 330,
3994, 263, 331, 328, 329,
3996, 265, 331, 328, 330,
3999, 267, 332, 329, 330,
4001, 268, 332, 330, 331,
4003, 270, 331, 330, 330,
4006, 271, 331, 331, 329,
4008, 272, 332, 331, 329,
4011, 274, 331, 332, 331,
4013, 276, 330, 333, 330,
4016, 277, 330, 333, 329,
4018, 278, 331, 333, 329,
4020, 280, 331, 334, 330,
4023, 282, 331, 333, 330,
4025, 283, 331, 335, 329,
4027, 285, 331, 335, 329,
4030, 286, 332, 336, 329,
4032, 288, 331, 336, 329,
4034, 288, 331, 337, 330,
4037, 290, 331, 337, 329,
4039, 291, 331, 338, 328,
4041, 293, 331, 338, 328,
4044, 294, 331, 339, 330,
4046, 296, 330, 339, 329,
4048, 296, 331, 340, 329,
4051, 297, 332, 340, 329,
4054, 298, 331, 340, 328,
4056, 300, 331, 340, 329,
4059, 302, 331, 340, 329,
4061, 303, 331, 342, 328,
4063, 305, 331, 341, 329,
4066, 306, 331, 342, 329,
4068, 307, 331, 342, 329,
4070, 307, 332, 342, 329,
4073, 309, 332, 343, 327,
4075, 310, 332, 342, 329,
4077, 312, 331, 343, 330,
4080, 312, 331, 342, 332,
4082, 314, 331, 343, 328,
4084, 314, 331, 344, 328,
4087, 315, 331, 344, 328,
4089, 317, 331, 344, 328,
4091, 318, 331, 343, 328,
4094, 320, 331, 344, 329,
4097, 320, 332, 346, 328,
4099, 321, 330, 343, 329,
4101, 322, 331, 344, 328,
4104, 323, 331, 345, 328,
4106, 325, 331, 345, 328,
4108, 326, 331, 345, 327,
4111, 327, 331, 344, 329,
4113, 328, 332, 345, 327,
4115, 328, 331, 345, 328,
4118, 330, 332, 345, 328,
4120, 330, 331, 344, 329,
4122, 330, 330, 345, 328,
4125, 332, 331, 345, 328,
4127, 333, 331, 345, 328,
4129, 339, 331, 345, 326,
4132, 335, 331, 345, 328,
4134, 336, 331, 345, 328,
4136, 337, 331, 345, 328,
4140, 337, 332, 345, 327,
4142, 338, 331, 346, 328,
4144, 339, 331, 345, 328,
4147, 339, 332, 345, 328,
4149, 340, 329, 346, 328,
4151, 341, 331, 345, 328,
4154, 342, 331, 345, 328,
4156, 343, 331, 344, 328,
4158, 343, 331, 345, 328,
4161, 343, 332, 345, 327,
4163, 344, 331, 345, 329,
4165, 345, 331, 344, 328,
4168, 346, 331, 343, 328,
4170, 346, 332, 344, 328,
4172, 346, 332, 344, 327,
4175, 348, 332, 344, 329,
4177, 348, 331, 345, 328,
4179, 349, 331, 344, 328,
4183, 350, 332, 344, 329,
4185, 350, 331, 343, 329,
4187, 351, 332, 344, 326,
4189, 350, 332, 344, 328,
4192, 351, 333, 344, 328,
4194, 352, 332, 343, 329,
4196, 353, 332, 343, 328,
4199, 353, 331, 342, 328,
4201, 353, 332, 344, 328,
4203, 354, 332, 343, 328,
4206, 353, 332, 343, 327,
4208, 355, 331, 343, 329,
4210, 355, 331, 343, 328,
4213, 356, 332, 343, 328,
4215, 356, 331, 343, 328,
4217, 357, 331, 342, 329,
4220, 357, 331, 342, 329,
4222, 358, 332, 342, 329,
4225, 357, 332, 342, 328,
4228, 359, 332, 342, 328,
4230, 359, 332, 342, 329,
4232, 359, 332, 342, 330,
4235, 359, 331, 343, 329,
4237, 360, 332, 342, 328,
4239, 360, 331, 342, 330,
4242, 360, 331, 341, 329,
4244, 360, 331, 343, 329,
4246, 361, 332, 342, 329,
4249, 361, 331, 342, 330,
4251, 361, 331, 342, 329,
4253, 361, 330, 341, 329,
4256, 362, 330, 342, 330,
4258, 362, 332, 341, 329,
4260, 363, 331, 341, 330,
4263, 364, 331, 340, 330,
4265, 364, 331, 341, 329,
4268, 364, 330, 342, 329,
4271, 364, 331, 341, 329,
4273, 365, 331, 342, 329,
4275, 365, 332, 341, 330,
4277, 365, 331, 341, 330,
4280, 364, 331, 340, 329,
4282, 365, 332, 340, 330,
4284, 365, 331, 340, 329,
4287, 366, 331, 340, 330,
4289, 366, 332, 340, 329,
4291, 367, 332, 340, 329,
4294, 367, 332, 339, 330,
4296, 367, 332, 340, 329,
4298, 366, 332, 340, 330,
4301, 367, 333, 339, 330,
4303, 367, 332, 340, 330,
4305, 367, 332, 340, 330,
4308, 367, 332, 340, 330,
4311, 367, 332, 340, 330,
4313, 367, 332, 340, 330,
4316, 367, 332, 339, 331,
4318, 368, 330, 340, 330,
4320, 367, 332, 340, 329,
4323, 368, 332, 340, 329,
4325, 367, 332, 340, 328,
4327, 368, 332, 340, 330,
4330, 369, 332, 340, 330,
4332, 368, 332, 341, 330,
4334, 368, 331, 340, 330,
4337, 368, 331, 340, 331,
4339, 367, 331, 341, 330,
4341, 367, 331, 341, 330,
4344, 366, 331, 341, 330,
4346, 366, 332, 340, 330,
4348, 365, 331, 340, 331,
4352, 363, 331, 340, 330,
4354, 362, 331, 341, 330,
4356, 361, 332, 341, 329,
4359, 359, 331, 340, 334,
4361, 358, 331, 340, 330,
4363, 356, 331, 340, 329,
4365, 356, 331, 340, 330,
4368, 354, 331, 341, 330,
4370, 353, 331, 340, 330,
4372, 351, 331, 341, 330,
4375, 350, 331, 343, 330,
4377, 348, 331, 341, 329,
4379, 347, 331, 340, 330,
4382, 346, 331, 340, 330,
4384, 344, 331, 340, 330,
4386, 342, 331, 341, 330,
4389, 341, 332, 340, 331,
4391, 340, 333, 340, 331,
4393, 339, 332, 340, 330,
4397, 338, 330, 341, 330,
4399, 337, 331, 340, 330,
4401, 336, 331, 340, 330,
4404, 335, 331, 340, 331,
4406, 333, 330, 339, 330,
4408, 333, 331, 340, 330,
4411, 331, 332, 340, 330,
4413, 329, 331, 340, 331,
4415, 329, 330, 340, 331,
4418, 328, 330, 340, 330,
4420, 327, 331, 340, 330,
4422, 326, 331, 340, 330,
4425, 325, 333, 341, 330,
4427, 324, 331, 340, 331,
4429, 323, 331, 341, 331,
4432, 322, 331, 340, 331,
4434, 322, 331, 339, 332,
4436, 321, 331, 340, 331,
4440, 320, 331, 340, 330,
4442, 320, 331, 339, 330,
4444, 319, 331, 339, 329,
4447, 319, 330, 340, 331,
4449, 318, 331, 340, 331,
4451, 318, 331, 339, 330,
4453, 318, 331, 339, 331,
4456, 317, 331, 338, 332,
4458, 317, 330, 339, 331,
4460, 318, 331, 339, 329,
4463, 317, 329, 339, 331,
4465, 317, 331, 338, 330,
4467, 317, 330, 338, 332,
4470, 317, 330, 339, 331,
4472, 317, 331, 339, 331,
4474, 317, 330, 338, 330,
4477, 317, 331, 337, 330,
4480, 317, 329, 338, 331,
4482, 321, 330, 338, 331,
4485, 317, 331, 337, 330,
4487, 318, 330, 338, 331,
4489, 318, 330, 338, 331,
4492, 318, 330, 338, 331,
4494, 318, 329, 338, 331,
4496, 318, 330, 338, 331,
4499, 318, 330, 338, 332,
4501, 319, 330, 337, 332,
4503, 318, 330, 338, 331,
4506, 319, 329, 339, 331,
4508, 319, 331, 338, 332,
4510, 320, 330, 337, 331,
4513, 320, 330, 337, 331,
4515, 320, 330, 338, 331,
4517, 320, 331, 337, 330,
4520, 320, 330, 337, 331,
4523, 322, 330, 337, 331,
4525, 322, 330, 336, 331,
4528, 323, 330, 337, 332,
4530, 323, 332, 337, 331,
4532, 324, 330, 337, 332,
4535, 325, 330, 337, 334,
4537, 325, 329, 337, 331,
4539, 326, 331, 337, 331,
4541, 327, 330, 336, 331,
4544, 327, 330, 337, 331,
4546, 328, 331, 337, 331,
4548, 327, 330, 337, 331,
4551, 329, 331, 339, 332,
4553, 329, 330, 336, 333,
4555, 330, 330, 337, 331,
4558, 331, 331, 337, 331,
4560, 331, 331, 337, 331,
4562, 332, 331, 337, 330,
4566, 333, 331, 336, 332,
4568, 333, 330, 337, 331,
4570, 335, 331, 337, 331,
4573, 335, 332, 337, 331,
4575, 335, 331, 336, 332,
4577, 335, 331, 336, 332,
4580, 336, 331, 336, 332,
4582, 337, 330, 337, 331,
4584, 341, 332, 336, 332,
4587, 339, 332, 336, 332,
4589, 339, 331, 336, 331,
4591, 339, 332, 337, 331,
4594, 340, 332, 336, 330,
4596, 341, 332, 336, 332,
4598, 342, 332, 336, 332,
4601, 342, 332, 336, 332,
4603, 343, 333, 335, 331,
4605, 344, 333, 336, 330,
4609, 345, 332, 336, 332,
4611, 345, 332, 336, 332,
4613, 346, 332, 336, 332,
4616, 346, 332, 336, 332,
4618, 347, 332, 336, 332,
4620, 348, 332, 335, 332,
4622, 347, 333, 336, 332,
4625, 349, 331, 336, 331,
4627, 349, 333, 336, 332,
4629, 350, 332, 336, 332,
4632, 350, 332, 336, 332,
4634, 351, 333, 336, 331,
4636, 352, 332, 336, 331,
4639, 352, 333, 336, 331,
4641, 353, 333, 335, 331,
4643, 353, 331, 336, 332,
4646, 354, 332, 336, 332,
4648, 354, 333, 336, 331,
4651, 355, 332, 335, 333,
4654, 356, 332, 335, 332,
4656, 356, 332, 336, 332,
4658, 357, 333, 336, 331,
4661, 357, 332, 336, 333,
4663, 358, 332, 336, 333,
4665, 358, 333, 336, 332,
4668, 359, 332, 337, 332,
4670, 359, 333, 336, 333,
4672, 360, 332, 336, 334,
4675, 360, 332, 336, 332,
4677, 361, 332, 334, 332,
4679, 362, 332, 336, 332,
4682, 361, 333, 336, 332,
4684, 362, 332, 336, 332,
4686, 362, 332, 336, 332,
4689, 362, 332, 337, 332,
4691, 363, 332, 336, 332,
4694, 364, 332, 336, 333,
4697, 364, 332, 336, 332,
4699, 365, 332, 336, 332,
4701, 365, 330, 337, 332,
4704, 365, 331, 336, 332,
4706, 366, 332, 336, 333,
4708, 366, 332, 337, 332,
4710, 366, 332, 337, 333,
4713, 366, 333, 336, 331,
4715, 366, 332, 336, 333,
4717, 367, 332, 337, 333,
4720, 367, 333, 337, 332,
4722, 368, 332, 337, 332,
4724, 369, 332, 336, 332,
4727, 369, 332, 337, 333,
4729, 369, 331, 337, 333,
4731, 369, 331, 336, 334,
4734, 370, 333, 337, 333,
4737, 370, 331, 336, 333,
4739, 371, 332, 336, 331,
4742, 371, 332, 337, 333,
4744, 371, 332, 337, 333,
4746, 372, 332, 337, 334,
4749, 372, 331, 337, 334,
4751, 372, 331, 337, 333,
4753, 372, 332, 336, 333,
4756, 373, 332, 336, 333,
4758, 372, 332, 337, 332,
4760, 375, 332, 337, 333,
4763, 374, 331, 336, 333,
4765, 374, 331, 337, 332,
4767, 374, 332, 337, 332,
4770, 375, 331, 337, 333,
4772, 375, 330, 337, 332,
4774, 374, 331, 337, 333,
4777, 374, 333, 337, 333,
4780, 376, 332, 337, 334,
4782, 375, 332, 337, 334,
4785, 375, 331, 338, 333,
4787, 376, 331, 337, 333,
4789, 375, 331, 337, 333,
4792, 376, 332, 337, 333,
4794, 377, 331, 337, 333,
4796, 377, 332, 338, 333,
4798, 377, 332, 337, 333,
4801, 376, 332, 338, 334,
4803, 378, 331, 337, 333,
4805, 378, 331, 337, 333,
4808, 377, 332, 338, 333,
4810, 378, 332, 337, 332,
4812, 378, 331, 337, 335,
4815, 379, 331, 337, 333,
4817, 378, 331, 338, 332,
4819, 378, 332, 338, 333,
4823, 379, 331, 337, 334,
4825, 379, 331, 338, 334,
4827, 379, 332, 338, 333,
4830, 379, 331, 339, 333,
4832, 379, 331, 337, 332,
4834, 380, 331, 338, 333,
4837, 379, 331, 337, 333,
4839, 380, 331, 337, 332,
4841, 380, 332, 337, 332,
4844, 380, 332, 337, 332,
4846, 381, 334, 337, 333,
4848, 381, 332, 337, 333,
4851, 381, 331, 337, 332,
4853, 380, 333, 338, 332,
4855, 381, 332, 337, 333,
4858, 381, 332, 337, 333,
4860, 381, 332, 338, 333,
4862, 381, 332, 337, 332,
4866, 380, 332, 337, 333,
4868, 382, 332, 337, 334,
4870, 382, 331, 337, 333,
4873, 382, 332, 337, 332,
4875, 382, 332, 337, 333,
4877, 381, 332, 337, 331,
4880, 383, 332, 337, 333,
4882, 383, 331, 337, 332,
4884, 382, 332, 337, 332,
4886, 383, 331, 337, 333,
4889, 383, 331, 336, 333,
4891, 383, 332, 337, 333,
4893, 384, 332, 337, 332,
4896, 383, 332, 337, 332,
4898, 384, 332, 336, 334,
4900, 383, 332, 336, 333,
4903, 383, 332, 337, 333,
4905, 383, 332, 337, 333,
4908, 384, 332, 337, 333,
4911, 383, 332, 337, 334,
4913, 383, 330, 337, 333,
4915, 384, 331, 337, 331,
4918, 384, 332, 337, 333,
4920, 383, 332, 336, 333,
4922, 384, 331, 336, 333,
4925, 384, 331, 336, 333,
4927, 384, 331, 337, 332,
4929, 384, 332, 336, 332,
4932, 384, 331, 335, 334,
4934, 384, 331, 336, 334,
4936, 384, 331, 337, 333,
4939, 384, 330, 337, 332,
4941, 385, 331, 336, 334,
4943, 384, 332, 336, 334,
4946, 384, 331, 336, 333,
4948, 384, 331, 338, 333,
4951, 384, 332, 337, 332,
4954, 384, 332, 336, 333,
4956, 384, 331, 337, 333,
4958, 384, 331, 336, 332,
4961, 385, 332, 337, 333,
4963, 384, 332, 337, 332,
4965, 384, 331, 337, 333,
4968, 385, 331, 337, 332,
4970, 384, 330, 337, 332,
4972, 384, 331, 337, 332,
4974, 384, 331, 337, 332,
4977, 385, 331, 337, 333,
4979, 384, 332, 337, 332,
4981, 384, 332, 338, 331,
4984, 383, 332, 337, 333,
4986, 384, 331, 337, 334,
4988, 384, 330, 337, 336,
4992, 384, 331, 338, 332,
4994, 384, 331, 337, 333,
4996, 384, 331, 338, 330,
4999, 384, 331, 337, 333,
5001, 384, 330, 338, 332,
5003, 385, 331, 338, 332,
5006, 384, 332, 341, 332,
5008, 384, 330, 336, 332,
5010, 384, 330, 337, 332,
5013, 384, 330, 338, 332,
5015, 384, 330, 338, 332,
5017, 384, 331, 337, 332,
5020, 384, 331, 337, 333,
5022, 384, 334, 337, 332,
5024, 383, 331, 337, 332,
5027, 383, 331, 337, 332,
5029, 383, 331, 337, 333,
5031, 383, 331, 336, 332,
5035, 384, 331, 336, 333,
5037, 383, 331, 337, 331,
5039, 386, 332, 337, 332,
5042, 383, 331, 337, 333,
5044, 383, 331, 337, 332,
5046, 383, 331, 337, 332,
5049, 383, 331, 337, 333,
5051, 383, 331, 337, 332,
5053, 383, 331, 337, 332,
5056, 384, 331, 337, 332,
5058, 383, 330, 337, 332,
5060, 383, 331, 337, 333,
5062, 383, 331, 337, 332,
5065, 383, 331, 337, 332,
5067, 383, 331, 337, 331,
5069, 383, 331, 337, 332,
5072, 382, 332, 336, 332,
5074, 383, 331, 337, 332,
5076, 382, 330, 337, 331,
5080, 382, 332, 337, 331,
5082, 382, 331, 336, 331,
5084, 382, 332, 337, 332,
5087, 382, 331, 336, 332,
5089, 382, 331, 336, 332,
5091, 381, 332, 336, 331,
5094, 382, 332, 336, 332,
5096, 382, 332, 336, 332,
5098, 380, 332, 336, 332,
5101, 381, 331, 337, 331,
5103, 381, 332, 336, 332,
5105, 381, 331, 336, 333,
5108, 381, 331, 336, 332,
5110, 381, 331, 335, 331,
5112, 381, 331, 336, 331,
5115, 380, 331, 336, 332,
5117, 381, 330, 336, 332,
5120, 381, 330, 336, 332,
5123, 381, 331, 337, 331,
5125, 380, 331, 336, 331,
5127, 380, 331, 336, 331,
5130, 381, 330, 336, 331,
5132, 380, 330, 336, 331,
5134, 380, 330, 337, 331,
5137, 380, 331, 336, 331,
5139, 380, 332, 336, 332,
5141, 379, 331, 336, 331,
5144, 379, 332, 336, 331,
5146, 380, 332, 336, 330,
5148, 379, 331, 336, 333,
5150, 380, 331, 336, 331,
5153, 379, 331, 336, 332,
5155, 379, 332, 336, 332,
5157, 379, 332, 336, 332,
5160, 379, 331, 335, 332,
5163, 379, 331, 336, 332,
5165, 380, 331, 336, 334,
5168, 379, 332, 335, 331,
5170, 379, 331, 336, 332,
5172, 379, 330, 335, 332,
5175, 379, 331, 336, 332,
5177, 378, 331, 336, 331,
5179, 379, 331, 335, 333,
5182, 378, 331, 338, 332,
5184, 378, 331, 335, 332,
5186, 379, 331, 336, 332,
5189, 377, 332, 335, 332,
5191, 378, 332, 335, 331,
5193, 378, 331, 335, 331,
5196, 378, 331, 335, 332,
5198, 378, 332, 336, 332,
5200, 379, 332, 335, 332,
5203, 378, 332, 335, 332,
5206, 378, 331, 335, 332,
5208, 378, 330, 335, 332,
5211, 378, 332, 334, 332,
5213, 378, 331, 335, 333,
5215, 381, 332, 335, 332,
5218, 377, 331, 335, 332,
5220, 377, 330, 335, 332,
5222, 377, 332, 335, 332,
5225, 377, 331, 334, 332,
5227, 377, 330, 335, 332,
5229, 377, 331, 335, 331,
5231, 378, 331, 335, 332,
5234, 377, 332, 335, 330,
5236, 377, 331, 335, 332,
5238, 377, 331, 335, 332,
5241, 376, 332, 334, 332,
5243, 376, 331, 334, 331,
5245, 377, 331, 334, 333,
5249, 377, 331, 334, 332,
5251, 376, 331, 335, 332,
5253, 376, 331, 335, 332,
5256, 376, 331, 335, 333,
5258, 376, 331, 334, 333,
5260, 376, 331, 335, 332,
5263, 376, 331, 336, 332,
5265, 376, 331, 334, 331,
5267, 376, 331, 334, 332,
5270, 376, 331, 334, 333,
5272, 376, 331, 335, 332,
5274, 376, 331, 335, 332,
5277, 375, 332, 335, 332,
5279, 375, 330, 334, 333,
5281, 375, 330, 335, 333,
5284, 375, 329, 335, 333,
5286, 375, 331, 336, 332,
5288, 375, 331, 335, 331,
5292, 375, 331, 335, 333,
5294, 375, 330, 335, 333,
5296, 375, 329, 335, 332,
5299, 373, 332, 335, 333,
5301, 374, 331, 335, 333,
5303, 374, 331, 334, 333,
5306, 374, 331, 335, 332,
5308, 374, 331, 335, 332,
5310, 373, 331, 335, 331,
5313, 374, 331, 335, 333,
5315, 374, 331, 335, 332,
5317, 373, 331, 335, 332,
5319, 373, 331, 335, 333,
5322, 373, 330, 334, 333,
5324, 373, 330, 335, 333,
5326, 374, 331, 335, 332,
5329, 373, 330, 335, 333,
5331, 373, 330, 334, 333,
5334, 373, 331, 335, 333,
5337, 373, 330, 335, 332,
5339, 372, 330, 335, 332,
5341, 373, 330, 335, 333,
5344, 373, 330, 335, 334,
5346, 373, 329, 335, 332,
5348, 373, 330, 335, 332,
5351, 373, 329, 336, 332,
5353, 373, 330, 335, 331,
5355, 372, 330, 335, 333,
5358, 372, 330, 336, 332,
5360, 372, 330, 335, 332,
5362, 372, 330, 335, 331,
5365, 372, 330, 335, 333,
5367, 372, 330, 335, 333,
5369, 372, 330, 336, 331,
5372, 371, 328, 337, 332,
5374, 372, 331, 336, 333,
5377, 372, 330, 335, 333,
5380, 371, 329, 334, 332,
5382, 371, 330, 336, 332,
5384, 372, 330, 335, 332,
5387, 372, 330, 335, 332,
5389, 372, 330, 336, 333,
5391, 372, 331, 336, 332,
5394, 372, 330, 336, 332,
5396, 372, 330, 336, 332,
5398, 372, 329, 336, 333,
5401, 372, 329, 336, 332,
5403, 372, 328, 336, 332,
5405, 372, 330, 336, 332,
5407, 371, 331, 336, 332,
5410, 373, 331, 336, 333,
5412, 372, 330, 336, 332,
5414, 372, 330, 337, 334,
5417, 371, 330, 336, 333,
5420, 372, 330, 336, 333,
5422, 371, 330, 336, 332,
5425, 371, 330, 336, 332,
5427, 371, 330, 336, 332,
5429, 372, 331, 336, 331,
5432, 372, 330, 336, 332,
5434, 371, 330, 336, 332,
5436, 371, 331, 336, 332,
5439, 371, 332, 336, 332,
5441, 371, 330, 335, 333,
5443, 371, 330, 336, 337,
5446, 371, 330, 336, 332,
5448, 372, 331, 337, 332,
5450, 372, 330, 336, 334,
5453, 372, 330, 337, 333,
5455, 371, 330, 337, 333,
5457, 370, 331, 337, 333,
5460, 371, 331, 336, 333,
5463, 371, 331, 337, 334,
5465, 372, 331, 337, 333,
5468, 373, 331, 334, 333,
5470, 373, 332, 337, 333,
5472, 372, 332, 338, 332,
5475, 372, 331, 338, 333,
5477, 371, 335, 338, 332,
5479, 371, 331, 338, 333,
5482, 371, 332, 337, 334,
5484, 372, 331, 336, 334,
5486, 371, 331, 336, 333,
5489, 371, 332, 336, 333,
5491, 371, 330, 336, 333,
5493, 374, 331, 336, 334,
5495, 371, 331, 336, 333,
5498, 371, 331, 336, 333,
5500, 371, 332, 336, 333,
5502, 371, 331, 336, 333,
5506, 371, 332, 337, 333,
5508, 372, 331, 337, 333,
5510, 372, 332, 338, 333,
5513, 373, 332, 339, 333,
5515, 373, 332, 338, 332,
5517, 373, 331, 337, 334,
5520, 373, 331, 338, 333,
5522, 372, 331, 337, 333,
5524, 372, 331, 337, 333,
5527, 372, 331, 337, 334,
5529, 372, 330, 337, 334,
5531, 370, 331, 338, 334,
5534, 372, 330, 339, 333,
5536, 371, 331, 338, 334,
5538, 371, 331, 337, 334,
5541, 371, 331, 337, 334,
5543, 372, 331, 337, 334,
5545, 372, 331, 338, 332,
5549, 371, 332, 338, 334,
5551, 372, 332, 338, 334,
5553, 372, 331, 339, 334,
5556, 373, 332, 340, 333,
5558, 372, 333, 339, 333,
5560, 374, 331, 338, 334,
5563, 373, 331, 337, 334,
5565, 373, 331, 338, 333,
5567, 373, 331, 339, 333,
5570, 373, 331, 338, 334,
5572, 373, 331, 338, 334,
5574, 374, 331, 338, 334,
5577, 373, 332, 339, 333,
5579, 374, 332, 338, 333,
5581, 374, 331, 338, 335,
5583, 373, 331, 339, 333,
5586, 373, 331, 339, 333,
5588, 372, 332, 338, 332,
5591, 373, 332, 338, 333,
5594, 372, 331, 338, 333,
5596, 371, 332, 338, 333,
5598, 372, 332, 338, 333,
5601, 371, 333, 338, 332,
5603, 372, 332, 337, 333,
5605, 371, 332, 337, 333,
5608, 371, 331, 338, 333,
5610, 372, 332, 339, 332,
5612, 373, 332, 338, 333,
5615, 372, 332, 339, 332,
5617, 372, 332, 339, 332,
5619, 372, 332, 339, 335,
5622, 373, 332, 339, 332,
5624, 372, 331, 340, 332,
5626, 373, 331, 339, 333,
5629, 373, 332, 340, 332,
5632, 373, 332, 341, 332,
5634, 373, 331, 340, 332,
5637, 373, 331, 341, 332,
5639, 373, 332, 339, 333,
5641, 372, 331, 338, 332,
5644, 372, 331, 339, 333,
5646, 373, 331, 338, 333,
5648, 372, 331, 339, 332,
5651, 371, 331, 340, 332,
5653, 372, 332, 340, 332,
5655, 371, 332, 340, 332,
5658, 371, 331, 339, 332,
5660, 372, 331, 340, 332,
5662, 372, 330, 339, 331,
5665, 373, 331, 339, 332,
5667, 372, 331, 340, 330,
5669, 376, 330, 340, 331,
5671, 372, 330, 340, 331,
5675, 372, 331, 340, 331,
5677, 372, 331, 339, 331,
5679, 372, 330, 339, 331,
5682, 372, 329, 338, 332,
5684, 372, 331, 339, 331,
5686, 371, 331, 339, 331,
5689, 372, 331, 338, 332,
5691, 372, 330, 339, 332,
5693, 372, 330, 340, 331,
5696, 371, 330, 341, 331,
5698, 371, 331, 340, 330,
5700, 372, 330, 341, 332,
5703, 372, 331, 341, 331,
5705, 372, 330, 341, 331,
5707, 372, 331, 341, 330,
5710, 373, 331, 340, 330,
5712, 374, 330, 339, 331,
5714, 374, 330, 339, 330,
5718, 374, 330, 340, 331,
5720, 375, 332, 340, 330,
5722, 374, 330, 340, 331,
5725, 374, 331, 339, 331,
5727, 374, 331, 340, 330,
5729, 374, 329, 340, 330,
5732, 374, 331, 340, 331,
5734, 374, 331, 341, 330,
5736, 374, 330, 340, 330,
5739, 373, 330, 341, 331,
5741, 373, 331, 341, 328,
5743, 373, 330, 341, 329,
5746, 373, 330, 341, 330,
5748, 373, 330, 341, 329,
5750, 372, 331, 341, 329,
5753, 373, 330, 341, 329,
5755, 372, 330, 341, 330,
5757, 372, 330, 342, 330,
5760, 372, 330, 341, 328,
5763, 371, 331, 341, 329,
5765, 372, 330, 340, 329,
5767, 372, 330, 341, 329,
5770, 371, 330, 341, 329,
5772, 371, 330, 342, 329,
5774, 371, 330, 341, 329,
5777, 370, 330, 341, 330,
5779, 369, 329, 340, 329,
5781, 368, 330, 341, 329,
5784, 367, 330, 341, 329,
5786, 366, 330, 342, 327,
5788, 366, 329, 341, 330,
5791, 365, 329, 341, 329,
5793, 363, 329, 341, 329,
5795, 364, 329, 340, 329,
5798, 364, 329, 341, 329,
5800, 363, 330, 341, 329,
5803, 362, 330, 341, 329,
5806, 361, 330, 342, 329,
5808, 361, 331, 341, 330,
5810, 361, 330, 341, 329,
5813, 360, 330, 342, 329,
5815, 360, 330, 343, 329,
5817, 360, 330, 342, 327,
5820, 360, 330, 342, 329,
5822, 360, 330, 342, 328,
5824, 360, 330, 340, 327,
5827, 359, 331, 342, 328,
5829, 359, 331, 341, 327,
5831, 359, 330, 342, 328,
5834, 359, 330, 342, 328,
5836, 359, 329, 342, 327,
5838, 359, 331, 341, 327,
5840, 359, 330, 341, 327,
5843, 360, 330, 341, 328,
5846, 362, 330, 341, 328,
5848, 360, 330, 340, 326,
5851, 361, 331, 341, 328,
5853, 361, 330, 340, 329,
5855, 361, 330, 340, 328,
5858, 362, 329, 340, 327,
5860, 361, 330, 340, 327,
5862, 363, 330, 341, 327,
5865, 363, 330, 341, 328,
5867, 364, 330, 341, 327,
5869, 365, 329, 341, 328,
5872, 364, 329, 341, 326,
5874, 365, 329, 341, 327,
5876, 365, 329, 341, 327,
5879, 367, 330, 341, 327,
5881, 367, 330, 340, 327,
5883, 368, 330, 339, 327,
5886, 369, 330, 340, 327,
5889, 369, 330, 340, 327,
5891, 370, 331, 341, 327,
5894, 371, 331, 341, 326,
5896, 372, 331, 341, 329,
5898, 373, 330, 340, 331,
5901, 374, 331, 338, 326,
5903, 375, 331, 340, 326,
5905, 376, 332, 340, 326,
5908, 378, 331, 339, 327,
5910, 379, 331, 340, 327,
5912, 380, 331, 341, 327,
5915, 381, 332, 343, 328,
5917, 383, 331, 340, 328,
5919, 383, 331, 342, 327,
5922, 384, 332, 341, 326,
5924, 384, 332, 341, 327,
5926, 386, 331, 340, 326,
5928, 387, 331, 338, 327,
5932, 389, 333, 338, 327,
5934, 390, 331, 339, 326,
5936, 391, 331, 339, 327,
5939, 392, 331, 340, 328,
5941, 393, 330, 341, 327,
5943, 394, 330, 341, 327,
5946, 395, 332, 341, 326,
5948, 396, 331, 341, 326,
5950, 397, 331, 341, 327,
5953, 398, 331, 341, 327,
5955, 399, 331, 342, 327,
5957, 400, 331, 343, 326,
5960, 401, 331, 342, 327,
5962, 402, 331, 340, 327,
5964, 402, 332, 342, 327,
5967, 404, 330, 343, 327,
5969, 405, 331, 342, 327,
5971, 407, 331, 342, 327,
5975, 408, 331, 341, 327,
5977, 409, 331, 342, 327,
5979, 411, 331, 341, 326,
5982, 413, 332, 341, 328,
5984, 414, 331, 340, 327,
5986, 415, 331, 341, 327,
5989, 416, 332, 342, 327,
5991, 417, 330, 343, 326,
5993, 419, 331, 342, 327,
5996, 421, 331, 341, 327,
5998, 422, 330, 340, 327,
6000, 424, 331, 340, 327,
6003, 426, 332, 340, 328,
6005, 426, 332, 341, 328,
6007, 427, 331, 342, 328,
6010, 428, 331, 341, 327,
6012, 429, 331, 341, 327,
6014, 430, 331, 341, 329,
6017, 431, 330, 341, 327,
6020, 432, 331, 342, 328,
6022, 432, 331, 340, 328,
6024, 433, 331, 340, 328,
6027, 432, 331, 341, 329,
6029, 433, 331, 341, 328,
6031, 434, 332, 341, 328,
6034, 434, 333, 340, 328,
6036, 435, 332, 340, 329,
6038, 435, 331, 340, 329,
6041, 435, 331, 340, 328,
6043, 435, 331, 340, 328,
6045, 436, 331, 340, 329,
6048, 436, 332, 341, 329,
6050, 435, 332, 341, 329,
6052, 434, 332, 342, 328,
6055, 435, 332, 342, 328,
6057, 435, 332, 342, 329,
6060, 435, 331, 342, 329,
6063, 435, 332, 340, 329,
6065, 435, 333, 339, 329,
6067, 435, 331, 338, 328,
6070, 434, 332, 339, 329,
6072, 434, 332, 340, 329,
6074, 434, 330, 341, 331,
6077, 433, 333, 341, 330,
6079, 434, 332, 338, 330,
6081, 433, 331, 337, 330,
6084, 432, 331, 339, 330,
6086, 432, 331, 339, 330,
6088, 431, 332, 339, 330,
6091, 431, 331, 341, 330,
6093, 430, 332, 340, 330,
6095, 430, 331, 340, 330,
6098, 429, 331, 340, 330,
6100, 428, 332, 340, 328,
6103, 427, 332, 341, 329,
6105, 426, 331, 340, 330,
6108, 425, 335, 339, 329,
6110, 425, 332, 339, 329,
6112, 425, 332, 338, 330,
6115, 425, 332, 339, 331,
6117, 424, 332, 339, 330,
6119, 423, 332, 338, 333,
6122, 423, 332, 339, 331,
6124, 425, 332, 338, 331,
6126, 421, 332, 338, 330,
6129, 420, 333, 339, 330,
6131, 419, 331, 338, 330,
6133, 419, 331, 337, 332,
6136, 418, 331, 337, 331,
6138, 417, 331, 338, 331,
6140, 415, 330, 337, 330,
6144, 415, 332, 339, 330,
6146, 414, 332, 339, 332,
6148, 413, 331, 340, 331,
6151, 412, 332, 339, 331,
6153, 410, 332, 338, 331,
6155, 410, 332, 338, 332,
6158, 409, 332, 339, 331,
6160, 408, 332, 340, 331,
6162, 407, 331, 340, 331,
6165, 406, 332, 339, 331,
6167, 405, 332, 338, 332,
6169, 404, 332, 338, 331,
6172, 403, 331, 340, 331,
6174, 402, 333, 338, 331,
6176, 401, 332, 338, 330,
6179, 400, 331, 338, 331,
6181, 400, 332, 338, 333,
6183, 398, 333, 338, 331,
6187, 398, 332, 337, 332,
6189, 397, 332, 335, 332,
6191, 396, 331, 336, 332,
6193, 396, 332, 338, 332,
6196, 394, 332, 336, 332,
6198, 393, 332, 337, 333,
6200, 392, 331, 337, 332,
6203, 391, 331, 338, 331,
6205, 390, 332, 339, 332,
6207, 390, 331, 339, 332,
6210, 389, 331, 339, 333,
6212, 388, 330, 339, 332,
6214, 387, 331, 339, 332,
6217, 386, 332, 339, 331,
6219, 385, 331, 338, 330,
6221, 384, 330, 339, 332,
6224, 383, 331, 338, 332,
6226, 382, 331, 338, 332,
6228, 382, 331, 338, 331,
6232, 381, 331, 338, 332,
6234, 381, 331, 338, 332,
6236, 380, 331, 338, 332,
6239, 379, 330, 338, 331,
6241, 379, 332, 337, 333,
6243, 377, 331, 337, 332,
6246, 376, 331, 337, 332,
6248, 375, 331, 339, 332,
6250, 375, 332, 338, 332,
6253, 374, 332, 338, 332,
6255, 374, 331, 338, 333,
6257, 373, 331, 337, 332,
6260, 372, 331, 340, 331,
6262, 371, 332, 339, 331,
6264, 371, 331, 338, 333,
6267, 370, 331, 337, 333,
6269, 369, 331, 336, 332,
6272, 369, 331, 337, 331,
6275, 368, 331, 338, 332,
6277, 367, 331, 338, 333,
6279, 367, 330, 339, 331,
6281, 366, 331, 337, 331,
6284, 365, 332, 337, 333,
6286, 365, 331, 337, 333,
6288, 364, 332, 338, 332,
6291, 363, 331, 339, 332,
6293, 362, 332, 338, 332,
6295, 362, 332, 337, 332,
6298, 362, 332, 339, 333,
6300, 364, 332, 339, 332,
6302, 361, 332, 339, 332,
6305, 358, 333, 339, 332,
6307, 359, 332, 337, 333,
6309, 358, 332, 339, 333,
6312, 358, 331, 339, 332,
6315, 357, 333, 338, 332,
6317, 358, 332, 338, 333,
6320, 357, 332, 338, 333,
6322, 355, 331, 339, 333,
6324, 354, 333, 339, 333,
6327, 355, 333, 338, 333,
6329, 353, 333, 337, 332,
6331, 354, 332, 337, 333,
6334, 353, 332, 336, 333,
6336, 353, 333, 337, 333,
6338, 352, 333, 338, 332,
6341, 352, 333, 338, 333,
6343, 352, 333, 338, 333,
6345, 351, 333, 339, 333,
6348, 351, 334, 339, 334,
6350, 350, 333, 337, 334,
6352, 350, 333, 338, 335,
6355, 350, 333, 337, 333,
6358, 349, 333, 338, 334,
6360, 349, 333, 337, 335,
6363, 348, 333, 337, 334,
6365, 348, 333, 338, 334,
6367, 348, 333, 338, 334,
6369, 347, 333, 341, 334,
6372, 346, 333, 338, 334,
6374, 346, 334, 337, 335,
6376, 346, 333, 338, 334,
6379, 345, 334, 338, 334,
6381, 345, 333, 338, 334,
6383, 345, 332, 337, 335,
6386, 345, 333, 338, 335,
6388, 344, 333, 338, 335,
6390, 344, 333, 337, 334,
6393, 344, 333, 338, 335,
6395, 343, 332, 337, 335,
6397, 342, 333, 338, 335,
6401, 343, 333, 339, 335,
6403, 344, 333, 338, 335,
6405, 342, 333, 338, 336,
6408, 342, 333, 337, 335,
6410, 341, 333, 338, 335,
6412, 341, 333, 338, 335,
6415, 341, 333, 338, 336,
6417, 341, 333, 337, 336,
6419, 340, 332, 337, 336,
6422, 340, 333, 338, 336,
6424, 339, 333, 337, 336,
6426, 340, 333, 337, 337,
6429, 340, 333, 337, 336,
6431, 339, 333, 337, 336,
6433, 339, 333, 338, 336,
6436, 338, 333, 337, 337,
6438, 339, 333, 337, 336,
6440, 338, 332, 338, 337,
6444, 337, 333, 337, 337,
6446, 337, 333, 337, 337,
6448, 339, 333, 337, 338,
6450, 337, 332, 337, 337,
6453, 337, 333, 336, 337,
6455, 337, 332, 337, 336,
6457, 337, 332, 336, 337,
6460, 337, 333, 337, 337,
6462, 337, 332, 337, 337,
6464, 336, 333, 337, 337,
6467, 336, 334, 336, 337,
6469, 336, 332, 336, 338,
6471, 335, 332, 335, 337,
6474, 335, 332, 336, 337,
6476, 336, 332, 337, 337,
6478, 335, 333, 336, 338,
6481, 335, 333, 336, 338,
6483, 335, 333, 336, 337,
6486, 334, 333, 336, 337,
6489, 334, 332, 336, 338,
6491, 334, 333, 336, 339,
6493, 334, 332, 335, 336,
6496, 334, 332, 334, 337,
6498, 334, 333, 336, 338,
6500, 335, 332, 335, 338,
6503, 334, 333, 335, 339,
6505, 333, 333, 335, 337,
6507, 334, 333, 335, 337,
6510, 333, 332, 334, 339,
6512, 334, 332, 334, 339,
6514, 333, 333, 334, 339,
6517, 333, 332, 335, 339,
6519, 333, 332, 335, 338,
6521, 332, 333, 335, 339,
6524, 333, 333, 334, 339,
6526, 333, 332, 334, 339,
6529, 333, 332, 334, 342,
6532, 333, 332, 334, 339,
6534, 333, 333, 334, 339,
6536, 333, 332, 333, 339,
6538, 332, 331, 334, 339,
6541, 332, 333, 334, 338,
6543, 332, 333, 334, 338,
6545, 332, 332, 334, 337,
6548, 333, 331, 334, 339,
6550, 332, 331, 334, 339,
6552, 332, 331, 333, 339,
6555, 332, 331, 332, 339,
6557, 332, 331, 332, 338,
6559, 331, 333, 333, 339,
6562, 332, 336, 333, 339,
6564, 332, 332, 333, 338,
6566, 332, 332, 333, 340,
6569, 332, 332, 332, 339,
6572, 331, 332, 333, 339,
6574, 332, 333, 332, 339,
6577, 332, 333, 333, 337,
6579, 336, 332, 333, 339,
6581, 331, 332, 333, 339,
6584, 331, 333, 333, 339,
6586, 331, 334, 333, 338,
6588, 331, 332, 332, 339,
6591, 332, 332, 333, 339,
6593, 331, 332, 333, 339,
6595, 331, 331, 334, 339,
6598, 331, 333, 332, 339,
6600, 331, 332, 332, 340,
6602, 331, 332, 332, 339,
6605, 331, 332, 332, 339,
6607, 330, 333, 333, 339,
6609, 330, 333, 332, 340,
6612, 331, 332, 332, 340,
6615, 331, 331, 333, 339,
6617, 331, 333, 333, 338,
6620, 331, 332, 333, 339,
6622, 331, 332, 332, 340,
6624, 331, 332, 333, 339,
6626, 332, 333, 332, 338,
6629, 330, 334, 332, 339,
6631, 330, 333, 332, 340,
6633, 330, 332, 332, 339,
6636, 331, 333, 332, 339,
6638, 330, 333, 333, 339,
6640, 330, 332, 332, 339,
6643, 330, 332, 332, 340,
6645, 330, 332, 332, 339,
6647, 330, 333, 332, 339,
6650, 329, 333, 332, 339,
6652, 333, 332, 332, 337,
6654, 330, 332, 332, 339,
6658, 330, 332, 331, 339,
6660, 330, 332, 332, 338,
6662, 330, 332, 332, 339,
6665, 330, 332, 332, 339,
6667, 330, 332, 332, 339,
6669, 329, 332, 332, 338,
6672, 330, 332, 333, 338,
6674, 330, 333, 332, 339,
6676, 330, 332, 332, 338,
6679, 330, 332, 332, 338,
6681, 329, 332, 332, 339,
6683, 329, 333, 332, 338,
6686, 330, 332, 332, 339,
6688, 330, 332, 332, 339,
6690, 330, 332, 330, 338,
6693, 330, 333, 332, 339,
6695, 330, 333, 332, 337,
6697, 329, 332, 332, 339,
6701, 329, 332, 332, 338,
6703, 329, 332, 332, 338,
6705, 330, 333, 331, 339,
6708, 330, 332, 332, 338,
6710, 330, 332, 332, 339,
6712, 329, 332, 332, 338,
6714, 329, 332, 332, 337,
6717, 330, 333, 332, 339,
6719, 329, 332, 331, 339,
6721, 329, 332, 332, 337,
6724, 330, 332, 332, 338,
6726, 330, 332, 332, 338,
6728, 330, 332, 332, 338,
6731, 330, 332, 332, 338,
6733, 330, 331, 332, 337,
6735, 330, 332, 332, 338,
6738, 330, 334, 333, 338,
6740, 330, 331, 331, 338,
6743, 330, 332, 332, 338,
6746, 330, 331, 333, 337,
6748, 330, 332, 332, 337,
6750, 330, 332, 331, 338,
6753, 330, 332, 332, 337,
6755, 332, 332, 332, 337,
6757, 329, 332, 333, 337,
6760, 329, 332, 333, 338,
6762, 330, 332, 333, 338,
6764, 330, 331, 333, 337,
6767, 330, 330, 335, 337,
6769, 330, 331, 333, 336,
6771, 330, 332, 333, 335,
6774, 330, 331, 332, 337,
6776, 330, 331, 332, 337,
6778, 330, 332, 334, 337,
6781, 330, 333, 333, 337,
6784, 329, 331, 333, 337,
6786, 330, 331, 333, 337,
6789, 330, 331, 333, 335,
6791, 330, 331, 333, 336,
6793, 330, 332, 333, 337,
6796, 330, 331, 333, 336,
6798, 330, 331, 333, 336,
6800, 330, 332, 333, 336,
6802, 330, 332, 333, 336,
6805, 330, 332, 333, 337,
6807, 330, 330, 333, 338,
6809, 329, 331, 333, 336,
6812, 329, 332, 333, 335,
6814, 330, 331, 333, 334,
6816, 330, 331, 333, 336,
6819, 330, 332, 333, 335,
6821, 329, 332, 333, 335,
6823, 329, 332, 333, 336,
6827, 330, 332, 333, 336,
6829, 330, 331, 333, 335,
6831, 329, 332, 333, 335,
6834, 330, 330, 334, 335,
6836, 330, 331, 333, 336,
6838, 330, 332, 333, 336,
6841, 330, 331, 333, 335,
6843, 330, 331, 333, 334,
6845, 330, 332, 333, 334,
6848, 329, 332, 333, 334,
6850, 330, 332, 332, 335,
6852, 329, 331, 333, 334,
6855, 330, 331, 333, 334,
6857, 329, 332, 333, 334,
6859, 330, 331, 333, 334,
6862, 330, 332, 332, 334,
6864, 330, 330, 333, 334,
6866, 330, 332, 333, 333,
6870, 330, 332, 333, 335,
6872, 330, 332, 332, 334,
6874, 331, 332, 332, 334,
6877, 329, 332, 333, 333,
6879, 329, 332, 332, 334,
6881, 330, 332, 333, 334,
6884, 330, 330, 333, 334,
6886, 330, 331, 333, 334,
6888, 330, 331, 333, 333,
6890, 330, 331, 333, 334,
6893, 330, 331, 333, 334,
6895, 330, 330, 333, 334,
6897, 330, 331, 333, 333,
6900, 330, 332, 333, 333,
6902, 330, 330, 332, 334,
6904, 330, 330, 332, 333,
6907, 329, 330, 333, 333,
6909, 330, 331, 333, 331,
6912, 330, 331, 332, 334,
6915, 330, 332, 332, 332,
6917, 330, 332, 333, 333,
6919, 330, 331, 333, 333,
6922, 330, 332, 332, 332,
6924, 330, 331, 332, 335,
6926, 330, 330, 332, 333,
6929, 330, 331, 330, 333,
6931, 331, 331, 332, 333,
6933, 330, 331, 332, 332,
6936, 330, 331, 332, 334,
6938, 330, 331, 332, 333,
6940, 330, 332, 331, 333,
6943, 330, 331, 333, 333,
6945, 330, 332, 331, 334,
6947, 326, 331, 332, 333,
6950, 330, 331, 331, 333,
6952, 330, 330, 333, 333,
6955, 329, 332, 332, 333,
6958, 330, 332, 331, 333,
6960, 329, 331, 332, 333,
6962, 330, 331, 332, 333,
6965, 330, 332, 331, 333,
6967, 329, 332, 332, 332,
6969, 330, 331, 331, 333,
6972, 330, 331, 331, 334,
6974, 330, 332, 331, 333,
6976, 331, 332, 332, 333,
6978, 330, 332, 331, 333,
6981, 330, 331, 332, 333,
6983, 331, 332, 331, 335,
6985, 330, 332, 332, 333,
6988, 331, 332, 332, 333,
6990, 331, 331, 332, 334,
6992, 330, 331, 332, 333,
6995, 330, 331, 332, 333,
6998, 330, 332, 332, 333,
7000, 331, 331, 334, 333,
7003, 330, 331, 332, 333,
7005, 330, 331, 332, 333,
7007, 330, 332, 332, 332,
7010, 330, 332, 332, 332,
7012, 331, 331, 332, 333,
7014, 330, 331, 332, 333,
7017, 330, 335, 332, 332,
7019, 330, 333, 332, 332,
7021, 330, 331, 332, 334,
7024, 331, 331, 332, 333,
7026, 330, 330, 333, 333,
7028, 330, 332, 332, 332,
7031, 331, 331, 332, 333,
7033, 331, 330, 332, 334,
7035, 330, 330, 331, 333,
7038, 330, 330, 333, 332,
7041, 330, 331, 332, 331,
7043, 330, 331, 332, 333,
7046, 330, 331, 332, 333,
7048, 330, 331, 332, 332,
7050, 330, 331, 333, 332,
7053, 330, 331, 332, 333,
7055, 331, 331, 332, 333,
7057, 331, 331, 333, 333,
7059, 331, 332, 332, 332,
7062, 330, 332, 332, 332,
7064, 331, 331, 332, 334,
7066, 330, 332, 332, 333,
7069, 330, 331, 332, 333,
7071, 330, 332, 333, 332,
7073, 331, 331, 332, 334,
7076, 331, 332, 332, 334,
7078, 331, 332, 332, 333,
7080, 330, 331, 333, 333,
7084, 331, 331, 332, 332,
7086, 330, 331, 332, 331,
7088, 330, 330, 332, 333,
7091, 331, 331, 332, 332,
7093, 330, 331, 332, 332,
7095, 331, 331, 332, 332,
7098, 331, 331, 332, 333,
7100, 331, 330, 332, 333,
7102, 330, 331, 332, 334,
7105, 331, 331, 333, 332,
7107, 331, 331, 332, 333,
7109, 330, 330, 332, 333,
7112, 331, 330, 332, 333,
7114, 331, 330, 333, 333,
7116, 331, 331, 332, 332,
7119, 331, 330, 332, 333,
7121, 330, 330, 332, 333,
7123, 331, 331, 332, 333,
7127, 331, 331, 332, 332,
7129, 330, 331, 332, 332,
7131, 331, 331, 332, 333,
7134, 331, 330, 332, 333,
7136, 330, 330, 331, 332,
7138, 330, 331, 332, 332,
7141, 331, 330, 332, 333,
7143, 331, 331, 332, 333,
7145, 331, 331, 332, 333,
7147, 330, 331, 332, 332,
7150, 331, 331, 332, 334,
7152, 331, 331, 333, 333,
7154, 330, 331, 332, 332,
7157, 331, 330, 332, 333,
7159, 330, 330, 332, 334,
7161, 331, 330, 332, 333,
7164, 331, 331, 332, 333,
7166, 331, 330, 332, 333,
7169, 331, 330, 331, 332,
7172, 330, 331, 332, 332,
7174, 331, 330, 331, 334,
7176, 331, 330, 332, 332,
7179, 331, 329, 332, 333,
7181, 331, 330, 331, 332,
7183, 331, 330, 331, 333,
7186, 331, 330, 331, 333,
7188, 331, 331, 332, 332,
7190, 330, 331, 332, 333,
7193, 330, 335, 331, 333,
7195, 331, 331, 331, 334,
7197, 331, 330, 331, 333,
7200, 331, 330, 331, 332,
7202, 331, 331, 331, 332,
7204, 330, 331, 330, 333,
7207, 332, 331, 331, 333,
7209, 335, 332, 332, 331,
7212, 331, 332, 332, 332,
7215, 331, 332, 332, 333,
7217, 332, 331, 330, 334,
7219, 332, 331, 331, 333,
7222, 331, 330, 331, 332,
7224, 331, 331, 332, 333,
7226, 331, 332, 331, 334,
7229, 331, 331, 330, 333,
7231, 331, 331, 331, 333,
7233, 331, 332, 331, 333,
7235, 332, 331, 331, 333,
7238, 330, 332, 331, 332,
7240, 331, 330, 331, 333,
7242, 332, 332, 331, 333,
7245, 331, 332, 331, 333,
7247, 331, 331, 331, 332,
7249, 331, 331, 331, 333,
7252, 331, 331, 332, 333,
7255, 330, 332, 331, 333,
7257, 331, 331, 331, 332,
7260, 332, 331, 330, 333,
7262, 332, 331, 330, 335,
7264, 331, 332, 331, 333,
7267, 331, 332, 331, 332,
7269, 331, 331, 330, 333,
7271, 331, 331, 330, 334,
7274, 331, 331, 330, 332,
7276, 331, 331, 331, 332,
7278, 332, 331, 333, 332,
7281, 331, 332, 330, 333,
7283, 332, 332, 331, 332,
7285, 331, 330, 331, 332,
7288, 332, 332, 331, 332,
7290, 331, 332, 330, 331,
7292, 332, 331, 330, 333,
7296, 332, 331, 330, 332,
7298, 331, 330, 331, 332,
7300, 332, 332, 331, 332,
7303, 332, 332, 330, 331,
7305, 332, 332, 330, 332,
7307, 331, 332, 331, 332,
7310, 330, 332, 331, 331,
7312, 330, 332, 330, 332,
7314, 331, 332, 331, 333,
7317, 331, 331, 331, 331,
7319, 332, 331, 331, 331,
7321, 331, 332, 331, 331,
7323, 332, 332, 331, 332,
7326, 332, 331, 331, 332,
7328, 330, 332, 331, 331,
7330, 333, 332, 331, 332,
7333, 331, 333, 331, 331,
7335, 332, 331, 330, 332,
7337, 332, 331, 331, 332,
7341, 331, 332, 331, 332,
7343, 332, 332, 331, 331,
7345, 331, 332, 330, 332,
7348, 332, 332, 331, 331,
7350, 331, 332, 331, 331,
7352, 331, 332, 332, 331,
7355, 331, 333, 331, 330,
7357, 332, 332, 331, 333,
7359, 332, 330, 332, 332,
7362, 332, 331, 331, 331,
7364, 331, 332, 332, 330,
7366, 332, 332, 331, 330,
7369, 332, 332, 330, 332,
7371, 332, 332, 330, 332,
7373, 332, 332, 331, 331,
7376, 331, 332, 331, 332,
7378, 332, 332, 331, 332,
7380, 332, 332, 330, 332,
7384, 332, 331, 332, 331,
7386, 333, 331, 330, 331,
7388, 331, 332, 331, 332,
7391, 331, 332, 331, 332,
7393, 331, 332, 331, 331,
7395, 331, 331, 332, 331,
7398, 331, 331, 331, 331,
7400, 330, 332, 331, 331,
7402, 331, 332, 331, 332,
7405, 331, 331, 332, 331,
7407, 331, 333, 332, 331,
7409, 331, 332, 331, 333,
7411, 331, 331, 331, 331,
7414, 331, 331, 332, 331,
7416, 331, 332, 331, 331,
7418, 331, 332, 331, 332,
7421, 332, 332, 331, 332,
7424, 332, 332, 331, 332,
7426, 330, 331, 332, 332,
7429, 331, 331, 332, 331,
7431, 331, 331, 331, 332,
7433, 331, 331, 331, 333,
7436, 331, 331, 331, 332,
7438, 331, 332, 331, 335,
7440, 331, 332, 331, 331,
7443, 331, 331, 331, 330,
7445, 331, 331, 332, 332,
7447, 331, 331, 332, 331,
7450, 330, 333, 332, 331,
7452, 331, 333, 332, 331,
7454, 331, 331, 335, 332,
7457, 331, 331, 331, 332,
7459, 334, 330, 332, 331,
7461, 331, 331, 331, 331,
7464, 332, 331, 331, 332,
7467, 332, 331, 331, 332,
7469, 331, 331, 330, 331,
7472, 331, 336, 332, 330,
7474, 331, 332, 331, 330,
7476, 331, 332, 331, 333,
7479, 331, 332, 331, 332,
7481, 331, 332, 332, 332,
7483, 331, 333, 332, 332,
7486, 331, 332, 331, 332,
7488, 333, 333, 332, 332,
7490, 330, 332, 331, 332,
7493, 332, 332, 332, 332,
7495, 331, 333, 331, 331,
7497, 331, 332, 331, 332,
7499, 331, 332, 331, 332,
7502, 331, 332, 332, 332,
7504, 331, 331, 332, 331,
7506, 331, 332, 331, 332,
7510, 331, 332, 331, 332,
7512, 331, 332, 331, 332,
7514, 330, 332, 332, 331,
7517, 331, 332, 332, 332,
7519, 330, 332, 331, 332,
7521, 330, 331, 331, 332,
7524, 331, 331, 330, 332,
7526, 331, 332, 332, 332,
7528, 331, 332, 332, 332,
7531, 331, 331, 332, 333,
7533, 331, 332, 332, 333,
7535, 331, 332, 332, 332,
7538, 331, 332, 333, 332,
7540, 331, 331, 332, 333,
7542, 331, 330, 332, 333,
7545, 331, 331, 332, 332,
7547, 331, 330, 333, 332,
7549, 331, 331, 332, 332,
7553, 331, 331, 331, 333,
7555, 331, 331, 332, 332,
7557, 331, 331, 330, 332,
7560, 329, 332, 332, 332,
7562, 331, 333, 331, 331,
7564, 331, 331, 331, 333,
7567, 331, 331, 332, 332,
7569, 330, 332, 332, 332,
7571, 331, 333, 332, 332,
7574, 331, 331, 332, 333,
7576, 331, 331, 332, 333,
7578, 330, 331, 332, 334,
7581, 330, 332, 332, 332,
7583, 331, 331, 332, 334,
7585, 331, 331, 332, 332,
7587, 330, 332, 332, 332,
7590, 329, 331, 332, 333,
7592, 330, 331, 332, 332,
7595, 331, 331, 332, 334,
7598, 331, 331, 332, 333,
7600, 331, 331, 332, 333,
7602, 331, 331, 332, 333,
7605, 330, 332, 332, 332,
7607, 332, 331, 333, 333,
7609, 330, 331, 334, 333,
7612, 331, 330, 334, 332,
7614, 330, 332, 333, 334,
7616, 331, 331, 333, 332,
7619, 331, 332, 333, 333,
7621, 331, 332, 333, 332,
7623, 331, 331, 333, 332,
7626, 330, 331, 333, 333,
7628, 331, 331, 333, 334,
7630, 330, 331, 333, 332,
7633, 331, 331, 334, 332,
7635, 331, 332, 333, 332,
7638, 331, 331, 333, 331,
7641, 331, 331, 332, 333,
7643, 331, 331, 333, 332,
7645, 330, 332, 333, 332,
7648, 331, 335, 334, 332,
7650, 331, 330, 331, 333,
7652, 331, 330, 331, 332,
7655, 331, 330, 332, 332,
7657, 331, 331, 332, 332,
7659, 330, 331, 332, 333,
7662, 330, 331, 332, 333,
7664, 333, 330, 332, 333,
7666, 330, 331, 333, 332,
7668, 330, 329, 332, 333,
7671, 331, 331, 331, 334,
7673, 330, 330, 331, 332,
7675, 330, 330, 332, 332,
7678, 330, 332, 331, 332,
7681, 330, 331, 331, 331,
7683, 330, 331, 331, 333,
7686, 331, 331, 332, 333,
7688, 330, 331, 331, 333,
7690, 330, 332, 331, 332,
7693, 329, 332, 332, 333,
7695, 330, 331, 331, 332,
7697, 330, 332, 332, 332,
7700, 330, 330, 332, 332,
7702, 331, 331, 332, 333,
7704, 331, 331, 332, 333,
7707, 331, 331, 331, 332,
7709, 331, 332, 332, 332,
7711, 331, 331, 332, 331,
7714, 331, 332, 332, 333,
7716, 331, 331, 331, 331,
7718, 331, 330, 331, 332,
7721, 331, 331, 330, 332,
7724, 331, 331, 330, 332,
7726, 331, 329, 330, 333,
7729, 331, 329, 332, 332,
7731, 331, 329, 332, 332,
7733, 330, 331, 333, 332,
7736, 331, 331, 332, 333,
7738, 331, 331, 332, 333,
7740, 330, 331, 332, 332,
7743, 331, 330, 332, 331,
7745, 330, 330, 331, 333,
7747, 331, 331, 331, 333,
7750, 331, 329, 333, 332,
7752, 331, 331, 333, 332,
7754, 331, 330, 333, 332,
7756, 332, 331, 332, 332,
7759, 331, 331, 332, 332,
7761, 331, 330, 332, 332,
7763, 332, 331, 331, 332,
7767, 331, 331, 329, 331,
7769, 332, 330, 327, 333,
7771, 331, 330, 329, 332,
7774, 331, 330, 330, 332,
7776, 331, 331, 331, 331,
7778, 331, 331, 331, 332,
7781, 332, 332, 331, 332,
7783, 331, 332, 332, 331,
7785, 330, 332, 331, 331,
7788, 332, 332, 330, 331,
7790, 332, 331, 330, 332,
7792, 332, 330, 331, 332,
7795, 332, 332, 330, 331,
7797, 332, 332, 331, 331,
7799, 332, 331, 331, 330,
7802, 332, 331, 330, 332,
7804, 332, 331, 330, 331,
7806, 333, 332, 330, 331,
7810, 332, 333, 331, 332,
7812, 331, 331, 331, 332,
7814, 332, 331, 331, 333,
7817, 332, 332, 332, 332,
7819, 332, 330, 332, 330,
7821, 333, 332, 331, 332,
7824, 333, 332, 331, 332,
7826, 333, 332, 333, 331,
7828, 333, 331, 334, 331,
7831, 332, 332, 332, 331,
7833, 333, 332, 331, 332,
7835, 333, 331, 330, 332,
7838, 333, 330, 332, 331,
7840, 335, 332, 331, 331,
7842, 333, 331, 332, 330,
7844, 333, 330, 332, 331,
7847, 333, 331, 334, 331,
7849, 333, 331, 333, 331,
7852, 333, 330, 331, 331,
7855, 334, 331, 330, 332,
7857, 333, 330, 331, 331,
7859, 333, 332, 333, 331,
7862, 333, 330, 334, 331,
7864, 332, 331, 333, 331,
7866, 333, 331, 332, 332,
7869, 332, 332, 331, 331,
7871, 334, 332, 331, 331,
7873, 334, 332, 330, 330,
7876, 333, 333, 332, 329,
7878, 333, 332, 332, 332,
7880, 333, 332, 331, 331,
7883, 332, 333, 331, 331,
7885, 333, 333, 330, 330,
7887, 333, 332, 329, 332,
7890, 334, 332, 329, 332,
7892, 334, 332, 330, 334,
7895, 334, 333, 330, 331,
7898, 334, 333, 331, 332,
7900, 334, 332, 331, 332,
7902, 334, 332, 331, 331,
7905, 334, 332, 332, 331,
7907, 334, 331, 329, 330,
7909, 334, 331, 332, 331,
7912, 334, 329, 329, 331,
7914, 334, 329, 329, 330,
7916, 334, 330, 329, 330,
7919, 334, 330, 328, 331,
7921, 333, 331, 329, 331,
7923, 333, 331, 330, 331,
7926, 334, 334, 331, 331,
7928, 333, 333, 331, 330,
7930, 333, 332, 331, 331,
7932, 333, 332, 329, 331,
7936, 333, 332, 329, 331,
7938, 333, 333, 331, 331,
7940, 333, 332, 331, 331,
7943, 332, 333, 332, 332,
7945, 332, 333, 332, 331,
7947, 332, 333, 332, 331,
7950, 333, 333, 330, 330,
7952, 332, 332, 329, 331,
7954, 333, 332, 328, 331,
7957, 333, 332, 329, 331,
7959, 333, 332, 330, 330,
7961, 333, 333, 330, 330,
7964, 333, 332, 330, 331,
7966, 333, 332, 331, 331,
7968, 333, 332, 331, 330,
7971, 332, 330, 331, 330,
7973, 333, 329, 330, 330,
7975, 332, 330, 328, 330,
7979, 332, 330, 330, 330,
7981, 331, 331, 331, 330,
7983, 332, 332, 330, 330,
7986, 332, 332, 328, 330,
7988, 332, 333, 328, 330,
7990, 331, 332, 330, 330,
7993, 331, 333, 331, 330,
7995, 331, 333, 330, 327,
7997, 331, 333, 328, 330,
8000, 331, 333, 329, 330,
8002, 330, 333, 330, 330,
8004, 330, 334, 331, 329,
8007, 330, 332, 329, 330,
8009, 331, 332, 330, 330,
8011, 330, 332, 330, 330,
8014, 329, 332, 331, 330,
8016, 331, 332, 330, 330,
8018, 330, 332, 330, 330,
8020, 329, 333, 329, 330,
8024, 330, 332, 329, 329,
8026, 330, 332, 328, 328,
8028, 330, 331, 328, 329,
8031, 330, 332, 328, 329,
8033, 330, 332, 328, 329,
8035, 330, 332, 328, 329,
8038, 329, 333, 330, 329,
8040, 330, 332, 331, 329,
8042, 329, 332, 332, 329,
8045, 327, 332, 333, 329,
8047, 328, 332, 332, 328,
8049, 329, 332, 331, 329,
8052, 328, 332, 331, 329,
8054, 328, 333, 332, 328,
8056, 327, 333, 331, 328,
8059, 329, 333, 329, 329,
8061, 329, 333, 328, 329,
8064, 328, 332, 328, 328,
8067, 329, 331, 328, 328,
8069, 327, 332, 327, 329,
8071, 329, 331, 327, 327,
8074, 329, 333, 327, 328,
8076, 328, 331, 328, 327,
8078, 328, 330, 329, 327,
8081, 328, 328, 329, 327,
8083, 329, 327, 329, 328,
8085, 329, 327, 334, 326,
8088, 328, 327, 328, 326,
8090, 328, 331, 326, 326,
8092, 329, 330, 326, 327,
8095, 328, 331, 327, 327,
8097, 328, 331, 328, 326,
8099, 328, 331, 330, 327,
8102, 328, 336, 329, 327,
8104, 327, 332, 330, 326,
8107, 327, 332, 330, 327,
8109, 327, 332, 330, 326,
8112, 327, 333, 329, 326,
8114, 326, 332, 327, 326,
8116, 328, 332, 327, 326,
8119, 331, 332, 327, 327,
8121, 327, 332, 328, 326,
8123, 328, 332, 327, 326,
8126, 327, 332, 326, 327,
8128, 328, 331, 326, 326,
8130, 327, 332, 326, 327,
8133, 328, 331, 325, 326,
8135, 327, 332, 324, 326,
8137, 327, 331, 323, 326,
8140, 327, 332, 322, 326,
8142, 327, 332, 323, 326,
8144, 327, 332, 323, 324,
8147, 326, 332, 323, 326,
8150, 327, 331, 324, 326,
8152, 326, 332, 324, 325,
8155, 326, 332, 324, 325,
8157, 326, 333, 323, 324,
8159, 326, 332, 323, 327,
8162, 326, 332, 322, 325,
8164, 326, 332, 324, 325,
8166, 325, 332, 324, 325,
8169, 326, 332, 323, 326,
8171, 325, 332, 323, 325,
8173, 325, 332, 324, 325,
8176, 325, 333, 323, 325,
8178, 325, 333, 321, 326,
8180, 325, 332, 320, 326,
8183, 324, 332, 319, 324,
8185, 324, 332, 320, 325,
8187, 323, 332, 319, 325,
8190, 324, 332, 319, 325,
8193, 324, 332, 319, 325,
8195, 323, 331, 319, 325,
8197, 323, 332, 317, 325,
8200, 322, 333, 316, 324,
8202, 323, 332, 315, 326,
8204, 322, 332, 317, 325,
8207, 321, 331, 317, 325,
8209, 322, 332, 317, 325,
8211, 321, 332, 316, 326,
8214, 321, 332, 316, 326,
8216, 321, 333, 316, 326,
8218, 319, 332, 316, 325,
8221, 319, 332, 316, 326,
8223, 319, 332, 316, 327,
8225, 318, 331, 316, 326,
8228, 318, 332, 314, 325,
8230, 317, 332, 315, 326,
8232, 316, 331, 314, 326,
8236, 315, 332, 314, 326,
8238, 315, 331, 314, 326,
8240, 314, 332, 313, 326,
8243, 312, 333, 313, 326,
8245, 312, 331, 313, 327,
8247, 311, 331, 313, 327,
8250, 311, 332, 314, 327,
8252, 310, 332, 316, 327,
8254, 310, 332, 314, 326,
8257, 309, 332, 314, 327,
8259, 308, 331, 314, 327,
8261, 307, 331, 315, 326,
8264, 306, 332, 314, 326,
8266, 307, 332, 314, 328,
8268, 306, 331, 313, 327,
8271, 306, 330, 313, 327,
8273, 304, 332, 311, 326,
8275, 304, 331, 311, 326,
8278, 304, 332, 311, 327,
8281, 304, 331, 312, 328,
8283, 303, 330, 311, 327,
8285, 303, 331, 308, 328,
8288, 303, 329, 307, 328,
8290, 302, 328, 306, 328,
8292, 300, 330, 310, 328,
8295, 304, 329, 312, 328,
8297, 300, 330, 311, 329,
8299, 300, 330, 312, 330,
8302, 299, 330, 312, 328,
8304, 299, 331, 312, 328,
8306, 299, 330, 311, 329,
8309, 297, 331, 312, 327,
8311, 297, 330, 312, 329,
8313, 297, 330, 312, 329,
8316, 296, 331, 313, 329,
8318, 295, 331, 312, 329,
8321, 295, 330, 311, 330,
8324, 294, 331, 312, 329,
8326, 294, 330, 312, 329,
8328, 294, 330, 313, 329,
8331, 294, 331, 313, 330,
8333, 293, 330, 312, 330,
8335, 292, 331, 312, 330,
8338, 291, 330, 310, 329,
8340, 291, 330, 309, 330,
8342, 290, 330, 310, 332,
8345, 290, 330, 310, 331,
8347, 289, 330, 312, 334,
8349, 289, 330, 312, 330,
8352, 288, 330, 310, 331,
8354, 287, 330, 311, 331,
8356, 287, 330, 310, 331,
8359, 286, 329, 310, 331,
8361, 286, 331, 309, 330,
8364, 286, 330, 313, 331,
8366, 284, 329, 309, 331,
8369, 284, 330, 310, 331,
8371, 283, 330, 311, 331,
8373, 283, 329, 311, 331,
8376, 283, 330, 311, 332,
8378, 282, 330, 311, 331,
8380, 281, 329, 311, 331,
8383, 281, 330, 311, 330,
8385, 281, 329, 311, 331,
8387, 281, 329, 311, 331,
8390, 281, 329, 311, 331,
8392, 280, 329, 312, 331,
8394, 280, 329, 311, 330,
8397, 282, 329, 312, 332,
8399, 280, 329, 312, 331,
8401, 280, 329, 311, 331,
8404, 279, 330, 310, 331,
8407, 280, 329, 309, 332,
8409, 279, 329, 310, 331,
8412, 279, 329, 311, 331,
8414, 279, 329, 313, 331,
8416, 279, 329, 312, 332,
8419, 279, 329, 312, 332,
8421, 279, 329, 312, 332,
8423, 279, 329, 311, 331,
8426, 278, 330, 312, 332,
8428, 278, 330, 311, 329,
8430, 279, 329, 311, 332,
8433, 279, 329, 311, 331,
8435, 279, 330, 312, 331,
8437, 279, 331, 313, 331,
8440, 279, 329, 313, 332,
8442, 279, 328, 313, 331,
8444, 279, 329, 313, 331,
8448, 279, 330, 313, 332,
8450, 279, 330, 312, 332,
8452, 279, 329, 312, 332,
8454, 279, 330, 313, 330,
8457, 279, 329, 313, 331,
8459, 280, 330, 313, 330,
8461, 279, 330, 312, 332,
8464, 280, 329, 312, 332,
8466, 279, 330, 311, 332,
8468, 280, 330, 313, 331,
8471, 280, 330, 313, 330,
8473, 280, 329, 313, 332,
8475, 279, 329, 314, 332,
8478, 279, 330, 315, 332,
8480, 280, 330, 315, 331,
8482, 280, 330, 315, 331,
8485, 280, 330, 315, 332,
8487, 280, 330, 314, 331,
8489, 279, 330, 314, 332,
8493, 280, 330, 314, 332,
8495, 280, 330, 315, 332,
8497, 280, 330, 315, 332,
8500, 279, 330, 315, 332,
8502, 280, 330, 316, 331,
8504, 281, 330, 316, 332,
8507, 281, 330, 315, 332,
8509, 281, 330, 316, 332,
8511, 281, 330, 317, 332,
8514, 282, 331, 317, 333,
8516, 282, 330, 317, 333,
8518, 283, 330, 317, 333,
8521, 283, 329, 318, 332,
8523, 284, 331, 318, 337,
8525, 285, 330, 317, 333,
8528, 285, 330, 317, 333,
8530, 285, 330, 317, 333,
8532, 286, 330, 318, 332,
8536, 287, 330, 317, 333,
8538, 287, 330, 317, 334,
8540, 288, 329, 321, 333,
8542, 288, 330, 318, 332,
8545, 289, 330, 318, 332,
8547, 289, 330, 318, 331,
8549, 290, 330, 317, 333,
8552, 291, 330, 318, 332,
8554, 291, 330, 318, 333,
8556, 292, 331, 318, 332,
8559, 293, 330, 317, 334,
8561, 293, 330, 318, 333,
8563, 294, 330, 318, 333,
8566, 294, 330, 319, 333,
8568, 295, 330, 318, 334,
8570, 295, 330, 318, 334,
8573, 298, 331, 319, 333,
8576, 296, 331, 320, 333,
8578, 297, 330, 319, 332,
8581, 297, 331, 320, 335,
8583, 298, 331, 319, 334,
8585, 298, 330, 320, 333,
8588, 298, 331, 320, 333,
8590, 299, 331, 320, 333,
8592, 299, 330, 320, 334,
8595, 300, 331, 320, 334,
8597, 300, 330, 321, 334,
8599, 300, 332, 321, 334,
8602, 302, 331, 320, 335,
8604, 302, 331, 320, 335,
8606, 302, 331, 320, 334,
8609, 302, 330, 322, 333,
8611, 302, 331, 321, 335,
8613, 303, 331, 322, 334,
8616, 303, 331, 321, 334,
8619, 304, 332, 321, 334,
8621, 304, 331, 321, 334,
8624, 305, 331, 321, 335,
8626, 306, 331, 321, 334,
8628, 306, 330, 322, 334,
8630, 307, 331, 321, 335,
8633, 306, 332, 322, 334,
8635, 307, 331, 321, 335,
8637, 308, 330, 322, 334,
8640, 308, 330, 322, 335,
8642, 309, 331, 321, 335,
8644, 309, 331, 321, 335,
8647, 310, 331, 322, 334,
8649, 310, 332, 322, 335,
8651, 310, 331, 323, 335,
8654, 310, 332, 323, 334,
8656, 310, 331, 322, 336,
8658, 311, 329, 323, 335,
8662, 311, 331, 321, 335,
8664, 311, 331, 323, 334,
8666, 312, 331, 323, 334,
8669, 312, 331, 323, 335,
8671, 312, 331, 324, 335,
8673, 313, 331, 324, 335,
8676, 311, 331, 324, 335,
8678, 313, 332, 324, 335,
8680, 313, 330, 324, 335,
8683, 313, 331, 325, 335,
8685, 313, 330, 325, 335,
8687, 313, 332, 324, 336,
8690, 313, 331, 323, 336,
8692, 313, 331, 323, 336,
8694, 313, 331, 324, 335,
8697, 314, 332, 324, 335,
8699, 313, 332, 324, 336,
8701, 314, 332, 324, 336,
8705, 313, 332, 325, 336,
8707, 313, 332, 324, 335,
8709, 313, 332, 325, 335,
8712, 313, 332, 324, 336,
8714, 313, 331, 325, 336,
8716, 313, 332, 325, 336,
8718, 313, 332, 325, 337,
8721, 313, 332, 324, 337,
8723, 313, 331, 323, 337,
8725, 313, 332, 324, 336,
8728, 313, 330, 325, 336,
8730, 312, 331, 325, 337,
8732, 313, 334, 325, 338,
8735, 312, 331, 325, 337,
8737, 312, 332, 326, 336,
8739, 312, 332, 325, 336,
8742, 312, 333, 326, 336,
8744, 312, 331, 325, 336,
8747, 311, 330, 326, 336,
8750, 313, 331, 326, 336,
8752, 311, 332, 325, 336,
8754, 311, 331, 324, 337,
8757, 311, 331, 325, 337,
8759, 311, 330, 326, 336,
8761, 311, 332, 326, 336,
8764, 311, 332, 326, 337,
8766, 310, 331, 326, 337,
8768, 310, 332, 326, 336,
8771, 310, 331, 327, 335,
8773, 310, 332, 326, 337,
8775, 310, 332, 326, 338,
8778, 308, 331, 326, 336,
8780, 309, 331, 325, 336,
8782, 309, 331, 327, 336,
8785, 309, 332, 327, 337,
8787, 309, 331, 327, 337,
8790, 309, 331, 328, 335,
8793, 309, 331, 327, 336,
8795, 309, 331, 327, 336,
8797, 309, 331, 327, 337,
8800, 308, 330, 327, 336,
8802, 308, 331, 328, 335,
8804, 308, 331, 328, 336,
8806, 308, 331, 328, 336,
8809, 307, 331, 328, 336,
8811, 307, 331, 328, 336,
8813, 306, 331, 328, 336,
8816, 307, 331, 328, 335,
8818, 306, 331, 327, 336,
8820, 306, 331, 328, 336,
8823, 309, 331, 328, 336,
8825, 306, 331, 328, 335,
8827, 306, 331, 329, 335,
8830, 306, 331, 328, 336,
8833, 306, 330, 329, 335,
8835, 305, 333, 329, 335,
8838, 305, 332, 329, 335,
8840, 305, 330, 328, 336,
8842, 305, 330, 328, 336,
8845, 305, 330, 329, 336,
8847, 305, 330, 330, 335,
8849, 305, 330, 329, 336,
8852, 306, 331, 329, 336,
8854, 304, 330, 328, 335,
8856, 304, 331, 329, 335,
8859, 304, 331, 329, 335,
8861, 303, 331, 329, 335,
8863, 304, 330, 329, 335,
8866, 304, 330, 329, 335,
8868, 304, 331, 329, 334,
8870, 304, 330, 329, 334,
8873, 304, 330, 329, 335,
8876, 304, 330, 329, 335,
8878, 303, 330, 329, 335,
8881, 303, 330, 329, 335,
8883, 304, 331, 329, 335,
8885, 303, 330, 329, 335,
8887, 303, 331, 330, 335,
8890, 303, 330, 330, 334,
8892, 302, 330, 330, 335,
8894, 303, 330, 330, 335,
8897, 303, 330, 329, 335,
8899, 303, 330, 329, 334,
8901, 303, 330, 329, 335,
8904, 302, 331, 329, 332,
8906, 303, 330, 329, 335,
8908, 303, 332, 329, 334,
8911, 302, 330, 330, 334,
8913, 302, 330, 330, 334,
8915, 303, 329, 330, 335,
8919, 303, 330, 330, 334,
8921, 303, 330, 329, 335,
8923, 302, 330, 331, 333,
8926, 303, 330, 331, 334,
8928, 303, 330, 330, 334,
8930, 303, 330, 331, 333,
8933, 303, 329, 332, 333,
8935, 303, 331, 331, 333,
8937, 303, 329, 331, 334,
8940, 303, 330, 330, 333,
8942, 303, 331, 331, 333,
8944, 303, 330, 331, 332,
8947, 303, 331, 331, 333,
8949, 303, 331, 331, 333,
8951, 303, 330, 331, 333,
8954, 302, 330, 332, 332,
8956, 303, 331, 331, 332,
8958, 303, 330, 331, 334,
8962, 304, 330, 331, 333,
8964, 304, 330, 331, 333,
8966, 304, 330, 331, 333,
8969, 304, 331, 331, 333,
8971, 304, 331, 331, 334,
8973, 304, 330, 331, 333,
8975, 304, 331, 331, 332,
8978, 304, 331, 332, 335,
8980, 304, 331, 331, 332,
8982, 304, 331, 332, 332,
8985, 304, 331, 332, 332,
8987, 304, 331, 332, 332,
8989, 305, 331, 331, 332,
8992, 305, 331, 330, 333,
8994, 305, 330, 331, 332,
8996, 305, 331, 331, 332,
8999, 305, 331, 331, 332,
9001, 305, 331, 331, 333,
9004, 304, 331, 332, 333,
9007, 305, 331, 331, 332,
9009, 305, 332, 332, 332,
9011, 305, 335, 332, 332,
9014, 305, 332, 332, 334,
9016, 305, 330, 333, 333,
9018, 305, 332, 333, 332,
9021, 305, 332, 333, 332,
9023, 304, 332, 333, 332,
9025, 305, 331, 333, 333,
9028, 307, 332, 333, 333,
9030, 305, 331, 332, 332,
9032, 305, 333, 333, 332,
9035, 306, 332, 332, 333,
9037, 306, 332, 332, 332,
9039, 305, 331, 333, 332,
9042, 305, 331, 334, 331,
9044, 305, 332, 332, 333,
9047, 306, 332, 333, 333,
9050, 306, 332, 332, 332,
9052, 306, 331, 333, 333,
9054, 306, 332, 333, 332,
9057, 306, 332, 333, 333,
9059, 306, 331, 333, 333,
9061, 306, 331, 333, 333,
9063, 307, 332, 333, 333,
9066, 306, 333, 333, 332,
9068, 307, 332, 333, 332,
9070, 306, 332, 333, 332,
9073, 306, 332, 333, 332,
9075, 306, 332, 333, 332,
9077, 307, 332, 333, 333,
9080, 307, 332, 333, 331,
9082, 307, 333, 333, 332,
9084, 306, 331, 333, 333,
9088, 307, 333, 333, 332,
9090, 307, 332, 333, 334,
9092, 307, 331, 333, 333,
9095, 308, 332, 333, 332,
9097, 307, 332, 333, 333,
9099, 308, 332, 334, 331,
9102, 308, 332, 333, 333,
9104, 308, 332, 334, 333,
9106, 309, 332, 334, 332,
9109, 308, 332, 334, 332,
9111, 309, 332, 334, 333,
9113, 308, 331, 334, 332,
9116, 309, 331, 334, 333,
9118, 309, 331, 335, 333,
9120, 309, 332, 334, 334,
9123, 309, 332, 333, 333,
9125, 309, 332, 333, 333,
9127, 309, 331, 335, 333,
9131, 309, 332, 334, 333,
9133, 309, 332, 334, 334,
9135, 310, 332, 334, 333,
9138, 309, 332, 335, 333,
9140, 310, 332, 334, 332,
9142, 310, 333, 335, 333,
9145, 310, 332, 335, 333,
9147, 311, 332, 335, 333,
9149, 310, 332, 335, 333,
9151, 311, 332, 335, 333,
9154, 311, 332, 334, 334,
9156, 311, 331, 334, 333,
9158, 311, 332, 335, 333,
9161, 311, 330, 335, 333,
9163, 311, 332, 335, 334,
9165, 312, 331, 335, 334,
9168, 312, 332, 335, 333,
9170, 312, 332, 339, 333,
9172, 312, 332, 335, 332,
9176, 312, 331, 335, 332,
9178, 313, 331, 336, 333,
9180, 312, 331, 336, 333,
9183, 313, 332, 336, 331,
9185, 313, 332, 335, 332,
9187, 313, 333, 335, 333,
9190, 313, 332, 335, 334,
9192, 314, 331, 335, 332,
9194, 313, 332, 335, 333,
9197, 314, 332, 335, 333,
9199, 315, 332, 335, 332,
9201, 313, 332, 335, 333,
9204, 317, 331, 335, 333,
9206, 315, 332, 335, 332,
9208, 315, 332, 335, 334,
9211, 315, 332, 335, 333,
9213, 315, 331, 336, 332,
9216, 316, 332, 335, 333,
9219, 316, 332, 335, 333,
9221, 316, 332, 335, 333,
9223, 316, 331, 334, 333,
9226, 317, 332, 335, 333,
9228, 317, 332, 335, 333,
9230, 318, 331, 335, 333,
9233, 316, 331, 335, 333,
9235, 318, 331, 336, 333,
9237, 318, 332, 335, 332,
9239, 318, 331, 335, 333,
9242, 319, 331, 335, 333,
9244, 319, 332, 336, 332,
9246, 318, 332, 336, 332,
9249, 319, 332, 336, 332,
9251, 319, 331, 335, 333,
9253, 320, 331, 335, 333,
9256, 320, 331, 336, 336,
9259, 320, 331, 336, 332,
9261, 321, 332, 335, 333,
9264, 321, 331, 335, 333,
9266, 321, 330, 336, 332,
9268, 322, 332, 335, 332,
9271, 321, 332, 336, 332,
9273, 321, 331, 335, 333,
9275, 322, 331, 335, 333,
9278, 323, 331, 335, 333,
9280, 322, 330, 337, 333,
9282, 321, 332, 336, 333,
9285, 323, 332, 336, 334,
9287, 323, 331, 336, 333,
9289, 323, 331, 337, 332,
9292, 322, 332, 336, 332,
9294, 324, 330, 336, 331,
9296, 324, 331, 336, 333,
9299, 324, 331, 336, 332,
9302, 324, 332, 336, 333,
9304, 325, 332, 336, 332,
9307, 325, 331, 335, 333,
9309, 325, 331, 336, 333,
9311, 325, 330, 336, 333,
9314, 325, 332, 336, 333,
9316, 326, 332, 336, 334,
9318, 325, 332, 336, 333,
9321, 325, 332, 336, 332,
9323, 326, 331, 336, 333,
9325, 326, 331, 336, 332,
9327, 326, 331, 336, 333,
9330, 327, 331, 336, 334,
9332, 327, 331, 336, 333,
9334, 327, 331, 336, 333,
9337, 326, 332, 336, 331,
9339, 327, 331, 336, 333,
9341, 327, 331, 336, 333,
9345, 327, 332, 336, 333,
9347, 327, 332, 336, 333,
9349, 327, 331, 335, 333,
9352, 328, 331, 335, 333,
9354, 328, 332, 336, 333,
9356, 327, 332, 336, 333,
9359, 328, 332, 336, 332,
9361, 328, 331, 336, 334,
9363, 328, 332, 336, 333,
9366, 329, 331, 337, 333,
9368, 328, 332, 336, 332,
9370, 329, 332, 336, 333,
9373, 329, 331, 336, 333,
9375, 329, 331, 336, 333,
9377, 329, 331, 336, 332,
9380, 330, 332, 336, 333,
9382, 329, 332, 335, 333,
9384, 329, 331, 336, 333,
9388, 329, 330, 336, 333,
9390, 329, 333, 336, 332,
9392, 329, 331, 336, 333,
9395, 330, 332, 336, 333,
9397, 330, 331, 336, 333,
9399, 330, 331, 337, 332,
9402, 330, 332, 336, 333,
9404, 330, 332, 336, 333,
9406, 330, 331, 336, 333,
9409, 329, 333, 336, 333,
9411, 330, 332, 336, 333,
9413, 331, 331, 336, 333,
9415, 331, 331, 337, 333,
9418, 331, 331, 337, 333,
9420, 330, 332, 336, 332,
9422, 332, 332, 336, 332,
9425, 331, 331, 337, 334,
9427, 332, 331, 336, 333,
9430, 332, 331, 336, 333,
9433, 332, 331, 336, 337,
9435, 332, 331, 336, 334,
9437, 332, 331, 336, 334,
9440, 332, 331, 336, 333,
9442, 332, 332, 337, 333,
9444, 332, 331, 336, 332,
9447, 332, 331, 337, 334,
9449, 333, 330, 338, 333,
9451, 332, 331, 337, 333,
9454, 333, 331, 337, 332,
9456, 332, 331, 336, 332,
9458, 333, 331, 336, 333,
9461, 333, 331, 336, 333,
9463, 333, 330, 336, 333,
9465, 333, 332, 336, 333,
9468, 334, 331, 336, 334,
9470, 333, 331, 336, 333,
9473, 333, 330, 337, 333,
9476, 333, 329, 337, 332,
9478, 333, 331, 337, 335,
9480, 333, 331, 337, 334,
9483, 336, 331, 336, 333,
9485, 334, 330, 337, 333,
9487, 334, 331, 336, 332,
9490, 334, 331, 336, 333,
9492, 334, 331, 336, 333,
9494, 334, 330, 336, 333,
9496, 335, 331, 336, 333,
9499, 334, 330, 336, 333,
9501, 335, 330, 335, 334,
9503, 334, 331, 337, 333,
9506, 334, 330, 336, 334,
9508, 334, 331, 336, 333,
9510, 334, 331, 335, 334,
9513, 335, 331, 336, 333,
9516, 334, 331, 336, 333,
9518, 333, 332, 336, 333,
9521, 334, 332, 335, 333,
9523, 335, 331, 336, 333,
9525, 335, 330, 336, 333,
9528, 335, 331, 336, 333,
9530, 335, 332, 336, 333,
9532, 335, 331, 336, 331,
9535, 335, 332, 336, 333,
9537, 335, 331, 336, 333,
9539, 335, 332, 336, 333,
9542, 335, 331, 337, 332,
9544, 335, 331, 336, 334,
9546, 335, 331, 335, 333,
9549, 335, 331, 335, 333,
9551, 335, 331, 335, 332,
9553, 335, 332, 335, 334,
9556, 336, 333, 336, 333,
9559, 335, 332, 335, 333,
9561, 335, 332, 336, 333,
9564, 335, 332, 336, 332,
9566, 335, 332, 335, 334,
9568, 335, 331, 335, 333,
9571, 336, 331, 334, 333,
9573, 336, 331, 335, 333,
9575, 335, 333, 335, 332,
9578, 335, 331, 335, 333,
9580, 336, 332, 336, 333,
9582, 335, 332, 336, 333,
9584, 334, 331, 336, 333,
9587, 336, 331, 336, 334,
9589, 336, 330, 335, 333,
9591, 336, 331, 336, 332,
9594, 336, 330, 336, 333,
9596, 335, 331, 338, 333,
9598, 336, 331, 336, 334,
9602, 336, 331, 336, 333,
9604, 336, 332, 336, 333,
9606, 337, 332, 336, 332,
9609, 335, 332, 336, 338,
9611, 336, 331, 336, 333,
9613, 336, 332, 336, 333,
9616, 336, 332, 336, 332,
9618, 337, 331, 336, 332,
9620, 337, 332, 334, 334,
9623, 337, 332, 335, 333,
9625, 337, 332, 338, 333,
9627, 337, 332, 335, 333,
9630, 337, 332, 335, 333,
9632, 338, 332, 335, 334,
9634, 338, 332, 336, 333,
9637, 337, 331, 336, 332,
9639, 337, 332, 335, 333,
9641, 337, 336, 336, 333,
9645, 337, 331, 335, 334,
9647, 337, 331, 334, 333,
9649, 337, 332, 336, 333,
9652, 337, 332, 335, 334,
9654, 338, 331, 336, 333,
9656, 338, 332, 336, 333,
9659, 341, 332, 336, 333,
9661, 338, 333, 336, 333,
9663, 338, 332, 336, 334,
9666, 338, 330, 336, 333,
9668, 338, 331, 336, 333,
9670, 338, 332, 336, 333,
9672, 338, 331, 336, 333,
9675, 338, 332, 335, 334,
9677, 338, 332, 336, 333,
9679, 338, 332, 336, 333,
9682, 338, 332, 336, 333,
9684, 338, 331, 336, 334,
9687, 338, 331, 336, 333,
9690, 338, 331, 336, 333,
9692, 338, 331, 336, 333,
9694, 339, 331, 336, 332,
9697, 339, 331, 335, 333,
9699, 339, 331, 336, 333,
9701, 339, 331, 336, 333,
9704, 339, 332, 336, 333,
9706, 339, 331, 336, 334,
9708, 338, 332, 335, 333,
9711, 338, 331, 336, 333,
9713, 339, 330, 337, 333,
9715, 339, 331, 336, 333,
9718, 339, 331, 336, 333,
9720, 339, 331, 335, 333,
9722, 338, 331, 336, 333,
9725, 338, 332, 336, 332,
9728, 338, 332, 335, 333,
9730, 339, 331, 336, 333,
9733, 339, 332, 335, 333,
9735, 339, 332, 336, 333,
9737, 338, 332, 336, 333,
9740, 339, 331, 335, 334,
9742, 339, 331, 336, 333,
9744, 338, 330, 336, 333,
9747, 338, 331, 336, 334,
9749, 339, 331, 336, 334,
9751, 339, 331, 336, 334,
9754, 338, 331, 336, 333,
9756, 339, 331, 336, 333,
9758, 338, 331, 335, 333,
9760, 337, 330, 335, 333,
9763, 339, 331, 336, 334,
9765, 338, 330, 336, 334,
9767, 339, 331, 336, 333,
9771, 338, 332, 336, 332,
9773, 339, 330, 336, 334,
9775, 338, 330, 336, 333,
9778, 339, 332, 336, 333,
9780, 338, 331, 336, 333,
9782, 339, 331, 336, 334,
9785, 339, 331, 336, 334,
9787, 339, 331, 336, 333,
9789, 339, 331, 336, 333,
9792, 339, 331, 336, 334,
9794, 339, 331, 336, 334,
9796, 339, 330, 336, 334,
9799, 339, 331, 337, 334,
9801, 339, 331, 336, 334,
9803, 339, 331, 336, 334,
9806, 338, 330, 336, 334,
9808, 339, 330, 335, 333,
9810, 339, 331, 336, 333,
9814, 339, 331, 336, 333,
9816, 339, 330, 336, 334,
9818, 340, 333, 335, 334,
9821, 339, 329, 337, 334,
9823, 339, 331, 337, 334,
9825, 340, 330, 336, 334,
9828, 340, 330, 336, 334,
9830, 339, 330, 336, 334,
9832, 340, 329, 337, 333,
9835, 340, 330, 336, 334,
9837, 340, 330, 336, 333,
9839, 340, 330, 336, 334,
9842, 340, 330, 337, 333,
9844, 340, 330, 336, 333,
9846, 339, 329, 337, 334,
9848, 340, 330, 337, 333,
9851, 340, 330, 337, 333,
9853, 340, 330, 337, 333,
9856, 340, 330, 337, 333,
9859, 340, 330, 336, 333,
9861, 340, 330, 337, 333,
9863, 340, 330, 337, 333,
9866, 340, 330, 337, 333,
9868, 341, 330, 337, 334,
9870, 340, 330, 337, 334,
9873, 340, 330, 337, 333,
9875, 340, 331, 337, 333,
9877, 341, 330, 337, 332,
9880, 340, 331, 337, 334,
9882, 341, 329, 337, 333,
9884, 341, 330, 337, 333,
9887, 340, 331, 337, 333,
9889, 340, 331, 336, 331,
9891, 340, 331, 336, 333,
9894, 341, 331, 336, 333,
9896, 340, 331, 337, 333,
9899, 341, 331, 336, 333,
9902, 341, 331, 336, 334,
9904, 341, 331, 335, 333,
9906, 340, 331, 337, 333,
9909, 341, 330, 337, 332,
9911, 341, 331, 336, 334,
9913, 341, 331, 336, 334,
9916, 341, 331, 336, 333,
9918, 341, 331, 337, 333,
9920, 341, 332, 337, 332,
9923, 341, 331, 336, 333,
9925, 340, 332, 336, 334,
9927, 341, 331, 336, 333,
9930, 341, 331, 336, 333,
9932, 341, 332, 336, 333,
9934, 341, 330, 336, 333,
9936, 344, 330, 336, 332,
9939, 341, 330, 336, 333,
9942, 341, 332, 335, 332,
9944, 341, 331, 335, 333,
9947, 341, 332, 334, 333,
9949, 341, 332, 335, 333,
9951, 340, 332, 335, 333,
9954, 341, 332, 335, 333,
9956, 342, 332, 335, 334,
9958, 341, 331, 335, 333,
9961, 341, 331, 335, 333,
9963, 341, 332, 335, 332,
9965, 342, 332, 335, 331,
9968, 342, 332, 334, 333,
9970, 341, 332, 335, 333,
9972, 342, 332, 335, 332,
9975, 342, 333, 335, 332,
9977, 342, 332, 335, 333,
9979, 341, 332, 334, 333,
9982, 342, 332, 335, 332,
9985, 342, 333, 336, 332,
9987, 342, 332, 335, 332,
9990, 342, 332, 335, 332,
9992, 342, 332, 335, 332,
9994, 342, 333, 336, 332,
9997, 342, 333, 335, 331,
9999, 342, 332, 335, 333,
10001, 342, 332, 335, 331,
10004, 342, 332, 335, 332,
10006, 342, 332, 335, 332,
10008, 342, 332, 335, 331,
10011, 342, 332, 335, 332,
10013, 342, 332, 335, 332,
10016, 342, 332, 335, 331,
10018, 341, 332, 335, 332,
10020, 342, 333, 335, 334,
10023, 343, 332, 334, 332,
10025, 341, 332, 334, 332,
10029, 341, 332, 335, 332,
10031, 342, 331, 335, 331,
10034, 342, 332, 335, 332,
10036, 342, 332, 335, 331,
10038, 342, 332, 335, 332,
10041, 342, 332, 335, 332,
10043, 340, 334, 335, 332,
10046, 342, 331, 335, 333,
10048, 341, 332, 335, 332,
10050, 341, 332, 333, 332,
10053, 341, 332, 335, 332,
10055, 342, 334, 334, 332,
10058, 341, 332, 335, 332,
10060, 340, 332, 335, 332,
10062, 341, 332, 335, 332,
10065, 342, 330, 335, 332,
10067, 341, 332, 335, 333,
10071, 340, 331, 335, 333,
10073, 341, 332, 335, 333,
10075, 341, 331, 335, 333,
10078, 341, 332, 335, 333,
10080, 341, 332, 336, 334,
10083, 341, 332, 335, 333,
10085, 341, 331, 335, 332,
10087, 341, 331, 335, 332,
10090, 341, 332, 334, 333,
10092, 341, 332, 335, 332,
10095, 342, 331, 335, 332,
10097, 341, 332, 334, 333,
10100, 341, 332, 335, 333,
10102, 341, 332, 334, 332,
10104, 341, 332, 333, 331,
10107, 340, 331, 336, 331,
10109, 341, 332, 333, 332,
10113, 342, 330, 335, 331,
10115, 342, 332, 335, 333,
10117, 340, 331, 335, 333,
10120, 341, 331, 335, 332,
10122, 340, 332, 335, 333,
10125, 341, 332, 335, 332,
10127, 339, 332, 334, 333,
10129, 341, 331, 335, 333,
10132, 341, 330, 335, 332,
10134, 342, 331, 334, 333,
10137, 341, 332, 335, 333,
10139, 341, 332, 335, 333,
10141, 345, 332, 335, 333,
10144, 341, 331, 334, 332,
10146, 340, 331, 335, 332,
10149, 341, 332, 334, 333,
10151, 341, 331, 335, 332,
10153, 341, 332, 334, 332,
10157, 341, 332, 334, 333,
10159, 341, 331, 335, 332,
10162, 341, 332, 335, 333,
10164, 342, 332, 335, 332,
10167, 341, 332, 334, 332,
10169, 342, 332, 334, 333,
10171, 342, 331, 335, 332,
10174, 341, 332, 334, 333,
10176, 342, 331, 334, 333,
10179, 342, 332, 334, 333,
10181, 342, 332, 334, 333,
10183, 341, 333, 334, 333,
10186, 342, 332, 333, 332,
10188, 342, 332, 334, 333,
10191, 342, 330, 335, 332,
10193, 341, 331, 334, 332,
10195, 342, 332, 334, 333,
10199, 343, 331, 335, 332,
10201, 342, 332, 335, 331,
10204, 342, 331, 336, 330,
10206, 342, 332, 335, 329,
10208, 343, 332, 335, 330,
10211, 343, 331, 337, 330,
10213, 344, 331, 335, 331,
10216, 344, 330, 335, 331,
10218, 344, 331, 336, 332,
10220, 343, 331, 337, 333,
10223, 344, 331, 341, 333,
10225, 345, 331, 335, 333,
10228, 345, 332, 335, 333,
10230, 345, 331, 335, 333,
10233, 346, 331, 336, 333,
10235, 346, 331, 334, 333,
10237, 346, 332, 335, 333,
10241, 346, 332, 335, 333,
10243, 346, 331, 335, 332,
10246, 346, 332, 335, 333,
10248, 346, 332, 336, 333,
10250, 347, 332, 335, 332,
10253, 347, 332, 335, 333,
10255, 348, 332, 335, 332,
10258, 346, 332, 334, 333,
10260, 348, 332, 337, 333,
10262, 348, 330, 336, 332,
10265, 349, 332, 335, 333,
10267, 349, 332, 335, 332,
10270, 349, 331, 336, 333,
10272, 348, 332, 336, 332,
10274, 349, 332, 336, 332,
10277, 350, 332, 336, 333,
10279, 350, 331, 337, 333,
10283, 350, 332, 337, 332,
10285, 350, 332, 341, 332,
10287, 350, 332, 338, 333,
10290, 351, 332, 338, 332,
10292, 351, 332, 338, 332,
10295, 352, 331, 339, 331,
10297, 351, 332, 339, 331,
10300, 352, 332, 337, 332,
10302, 352, 331, 339, 331,
10304, 351, 331, 340, 332,
10307, 352, 331, 340, 332,
10309, 352, 334, 341, 331,
10312, 350, 332, 342, 331,
10314, 351, 332, 342, 331,
10316, 351, 332, 343, 329,
10319, 351, 331, 341, 328,
10321, 350, 332, 341, 330,
10324, 350, 332, 341, 331,
10327, 351, 330, 340, 331,
10329, 352, 331, 339, 331,
10332, 351, 332, 339, 332,
10334, 351, 332, 340, 331,
10337, 350, 332, 340, 332,
10339, 350, 332, 341, 330,
10341, 350, 332, 342, 331,
10344, 350, 332, 340, 331,
10346, 351, 332, 339, 331,
10349, 352, 332, 340, 332,
10351, 352, 331, 340, 333,
10353, 352, 332, 341, 332,
10356, 352, 332, 341, 333,
10358, 353, 332, 341, 332,
10361, 352, 332, 342, 333,
10363, 353, 332, 343, 334,
10366, 353, 330, 342, 332,
10369, 354, 332, 340, 333,
10371, 352, 332, 338, 334,
10374, 356, 332, 337, 334,
10376, 356, 332, 340, 334,
10379, 356, 333, 342, 336,
10381, 355, 332, 344, 334,
10383, 355, 332, 344, 334,
10386, 355, 332, 344, 333,
10388, 355, 332, 343, 333,
10391, 354, 333, 343, 336,
10393, 356, 333, 344, 331,
10395, 355, 332, 344, 330,
10398, 358, 332, 344, 327,
10400, 356, 332, 342, 327,
10403, 358, 330, 343, 328,
10405, 358, 331, 341, 330,
10407, 359, 331, 340, 332,
10411, 358, 330, 336, 334,
10413, 358, 331, 337, 334,
10416, 357, 331, 337, 334,
10418, 357, 331, 338, 335,
10420, 357, 331, 337, 335,
10423, 357, 331, 338, 335,
10425, 356, 331, 337, 336,
10428, 355, 332, 339, 336,
10430, 356, 330, 340, 336,
10432, 357, 331, 340, 335,
10435, 353, 332, 341, 337,
10437, 352, 331, 343, 336,
10440, 350, 332, 343, 337,
10442, 349, 332, 343, 335,
10445, 348, 332, 343, 336,
10447, 347, 332, 343, 336,
10449, 346, 332, 344, 335,
10452, 345, 333, 342, 336,
10455, 343, 333, 343, 336,
10458, 343, 332, 344, 335,
10460, 340, 332, 343, 335,
10462, 338, 333, 343, 335,
10465, 337, 332, 343, 334,
10467, 334, 332, 342, 334,
10470, 334, 333, 342, 334,
10472, 332, 333, 340, 334,
10474, 332, 333, 336, 335,
10477, 332, 332, 336, 333,
10479, 330, 332, 334, 335,
10482, 330, 332, 336, 334,
10484, 329, 332, 338, 335,
10486, 327, 332, 338, 335,
10489, 327, 332, 339, 335,
10491, 325, 332, 340, 334,
10494, 325, 331, 340, 335,
10497, 323, 332, 341, 334,
10499, 320, 332, 340, 334,
10502, 320, 333, 339, 334,
10504, 320, 333, 340, 334,
10507, 320, 333, 340, 334,
10509, 320, 333, 342, 333,
10512, 319, 333, 342, 333,
10514, 319, 332, 342, 331,
10516, 318, 331, 341, 327,
10519, 317, 333, 341, 329,
10521, 318, 332, 341, 329,
10524, 318, 332, 341, 331,
10526, 319, 333, 339, 332,
10528, 319, 333, 337, 333,
10531, 319, 332, 337, 332,
10533, 318, 332, 339, 332,
10536, 318, 332, 340, 332,
10539, 318, 332, 339, 332,
10541, 318, 333, 338, 332,
10544, 319, 332, 337, 333,
10546, 320, 332, 337, 333,
10549, 320, 332, 338, 333,
10551, 320, 331, 338, 333,
10553, 319, 332, 339, 334,
10556, 319, 332, 338, 333,
10558, 318, 332, 336, 334,
10561, 319, 331, 337, 333,
10563, 320, 334, 336, 334,
10565, 321, 330, 337, 333,
10568, 322, 332, 339, 334,
10570, 321, 331, 342, 334,
10573, 321, 331, 341, 333,
10575, 321, 334, 341, 334,
10578, 322, 332, 340, 333,
10580, 324, 331, 341, 333,
10583, 324, 331, 341, 333,
10586, 325, 332, 341, 334,
10588, 324, 331, 341, 331,
10591, 323, 331, 340, 329,
10593, 324, 331, 341, 326,
10595, 324, 331, 340, 326,
10598, 325, 330, 340, 329,
10600, 325, 331, 339, 331,
10603, 326, 331, 339, 333,
10605, 329, 330, 337, 334,
10607, 330, 330, 337, 335,
10610, 332, 331, 336, 335,
10612, 334, 332, 336, 335,
10615, 334, 332, 335, 335,
10617, 335, 330, 335, 336,
10619, 336, 330, 336, 336,
10622, 336, 331, 337, 336,
10625, 339, 331, 337, 337,
10628, 340, 331, 338, 336,
10630, 340, 330, 338, 336,
10632, 340, 332, 339, 337,
10635, 340, 331, 338, 337,
10637, 340, 331, 339, 337,
10640, 342, 331, 338, 337,
10642, 342, 331, 336, 337,
10645, 343, 330, 339, 338,
10647, 344, 332, 339, 337,
10649, 342, 332, 340, 336,
10652, 344, 331, 339, 336,
10654, 344, 332, 338, 336,
10657, 345, 331, 339, 337,
10659, 346, 331, 338, 336,
10661, 351, 331, 338, 335,
10664, 350, 329, 338, 333,
10667, 351, 331, 337, 335,
10670, 351, 331, 338, 336,
10672, 353, 330, 337, 337,
10674, 354, 331, 336, 338,
10677, 355, 330, 334, 339,
10679, 355, 330, 333, 339,
10682, 357, 330, 333, 341,
10684, 358, 329, 334, 340,
10686, 358, 331, 336, 341,
10689, 358, 331, 336, 341,
10691, 358, 331, 337, 340,
10694, 359, 330, 336, 341,
10696, 359, 330, 335, 340,
10698, 360, 330, 334, 341,
10701, 360, 330, 334, 341,
10703, 361, 330, 335, 341,
10706, 360, 331, 336, 341,
10708, 361, 331, 336, 342,
10712, 360, 331, 336, 340,
10714, 359, 331, 336, 341,
10716, 359, 332, 337, 341,
10719, 358, 332, 336, 340,
10721, 359, 331, 337, 341,
10724, 362, 331, 337, 340,
10726, 362, 331, 336, 341,
10728, 364, 331, 336, 341,
10731, 366, 331, 338, 340,
10733, 365, 331, 336, 341,
10736, 364, 332, 336, 340,
10738, 364, 332, 336, 341,
10740, 366, 331, 335, 341,
10743, 367, 331, 335, 340,
10745, 367, 331, 334, 341,
10748, 369, 331, 335, 341,
10750, 370, 331, 335, 341,
10753, 369, 331, 334, 341,
10756, 371, 331, 335, 340,
10758, 370, 332, 333, 341,
10761, 371, 331, 332, 341,
10763, 371, 331, 333, 340,
10765, 372, 331, 335, 340,
10768, 372, 330, 334, 340,
10770, 372, 331, 335, 340,
10773, 371, 331, 335, 340,
10775, 373, 331, 335, 340,
10778, 372, 331, 335, 340,
10780, 372, 332, 335, 339,
10782, 371, 331, 335, 339,
10785, 371, 332, 334, 339,
10787, 372, 331, 335, 338,
10790, 372, 331, 335, 338,
10792, 371, 332, 335, 339,
10795, 370, 331, 335, 338,
10798, 369, 332, 334, 339,
10800, 370, 332, 334, 340,
10803, 370, 331, 335, 339,
10805, 370, 332, 334, 339,
10807, 371, 332, 334, 340,
10810, 372, 331, 335, 339,
10812, 371, 331, 334, 340,
10815, 371, 331, 333, 339,
10817, 370, 331, 333, 340,
10819, 369, 331, 333, 340,
10822, 369, 331, 333, 339,
10824, 368, 331, 333, 340,
10827, 368, 330, 333, 338,
10829, 366, 333, 333, 339,
10831, 365, 331, 333, 339,
10834, 365, 331, 334, 339,
10836, 363, 331, 334, 339,
10840, 363, 331, 334, 339,
10842, 361, 331, 333, 338,
10845, 359, 331, 335, 339,
10847, 358, 331, 334, 338,
10849, 357, 331, 335, 338,
10852, 355, 330, 334, 338,
10854, 354, 332, 334, 339,
10857, 352, 331, 332, 339,
10859, 351, 332, 333, 339,
10861, 351, 332, 335, 338,
10864, 349, 332, 334, 339,
10866, 348, 332, 335, 337,
10869, 346, 332, 334, 338,
10871, 344, 331, 334, 337,
10873, 343, 332, 334, 338,
10876, 342, 332, 334, 339,
10878, 342, 332, 334, 339,
10882, 342, 332, 334, 338,
10884, 340, 333, 333, 339,
10886, 340, 332, 332, 338,
10889, 338, 333, 332, 338,
10891, 338, 333, 332, 337,
10894, 336, 333, 334, 338,
10896, 336, 333, 332, 339,
10898, 336, 330, 333, 335,
10901, 336, 333, 334, 338,
10903, 335, 334, 334, 338,
10906, 335, 333, 334, 338,
10908, 333, 333, 334, 338,
10911, 333, 334, 334, 338,
10913, 332, 333, 333, 338,
10915, 334, 333, 335, 337,
10918, 333, 333, 335, 337,
10920, 332, 333, 335, 338,
10924, 330, 333, 333, 338,
10926, 330, 333, 335, 337,
10928, 331, 333, 335, 337,
10931, 330, 333, 335, 337,
10933, 329, 333, 334, 338,
10936, 329, 332, 334, 338,
10938, 329, 332, 334, 337,
10940, 330, 333, 335, 337,
10943, 329, 333, 335, 338,
10945, 329, 333, 335, 337,
10948, 329, 333, 335, 337,
10950, 330, 333, 335, 337,
10952, 330, 333, 334, 337,
10955, 330, 332, 335, 336,
10957, 329, 333, 334, 337,
10960, 329, 333, 334, 337,
10962, 329, 333, 334, 337,
10964, 330, 334, 334, 335,
10968, 330, 333, 334, 337,
10970, 330, 334, 334, 337,
10973, 330, 333, 333, 337,
10975, 331, 332, 335, 335,
