time,turnedAngle,pitchAngle,yawAngle
3?starting,0.7694854,0.7556288,0.1758294
0,0.7694854,0.7556288,0.1758294
1,0.7702479,0.7569224,0.174713
2,0.7702479,0.7569224,0.174713
4,0.7717707,0.758472,0.1724585
5,0.7717707,0.758472,0.1724585
7,0.7720242,0.7589878,0.1713202
8,0.7720242,0.7589878,0.1713202
10,0.7722777,0.7592455,0.1713202
12,0.7722777,0.7592455,0.1713202
14,0.7763211,0.7641266,0.1690205
16,0.7758168,0.7651502,0.1594904
19,0.7758168,0.7651502,0.1594904
21,0.7727842,0.7628451,0.1557664
23,0.7727842,0.7628451,0.1557664
25,0.7699938,0.7613045,0.1506579
27,0.7699938,0.7613045,0.1506579
29,0.7641266,0.7558876,0.14537
32,0.7641266,0.7558876,0.14537
34,0.7551107,0.7480813,0.1370561
36,0.7551107,0.7480813,0.1370561
38,0.7517344,0.7449358,0.132704
40,0.7517344,0.7449358,0.132704
43,0.7488656,0.7428315,0.1312212
46,0.7420408,0.7370135,0.1219466
48,0.7420408,0.7370135,0.1219466
50,0.7401926,0.7356848,0.1203313
52,0.7401926,0.7356848,0.1203313
54,0.7391344,0.7348864,0.1186941
56,0.7391344,0.7348864,0.1186941
58,0.7383398,0.7343537,0.1153499
61,0.7383398,0.7343537,0.1153499
63,0.7391344,0.7354187,0.1153499
65,0.7391344,0.7354187,0.1153499
67,0.7380747,0.7346201,0.1136409
69,0.7380747,0.7346201,0.1136409
71,0.7372789,0.7338206,0.1153499
74,0.7364823,0.733287,0.1153499
76,0.7364823,0.733287,0.1153499
78,0.7451985,0.741777,0.1203313
80,0.7451985,0.741777,0.1203313
82,0.762332,0.7574393,0.1341704
84,0.762332,0.7574393,0.1341704
88,0.7702479,0.7648944,0.1384764
90,0.7702479,0.7648944,0.1384764
92,0.776825,0.7712635,0.1426525
94,0.776825,0.7712635,0.1426525
96,0.7920414,0.7850935,0.1557664
98,0.7920414,0.7850935,0.1557664
100,0.7979487,0.7903101,0.1607126
103,0.8011303,0.7930291,0.165511
105,0.8011303,0.7930291,0.165511
107,0.8052719,0.7957386,0.1758294
109,0.8052719,0.7957386,0.1758294
112,0.8062432,0.7957386,0.1802258
114,0.8062432,0.7957386,0.1802258
116,0.8023506,0.7900625,0.1897456
118,0.798684,0.7853427,0.1938267
121,0.798684,0.7853427,0.1938267
123,0.7957386,0.7818466,0.1978235
125,0.7957386,0.7818466,0.1978235
128,0.7954926,0.7808449,0.2017412
131,0.7954926,0.7808449,0.2017412
133,0.7957386,0.7793398,0.20842
135,0.7957386,0.7793398,0.20842
137,0.8074558,0.7920414,0.2112177
140,0.81781,0.8028382,0.2130625
142,0.81781,0.8028382,0.2130625
144,0.8146936,0.798929,0.2176059
146,0.8146936,0.798929,0.2176059
149,0.8052719,0.7868362,0.2255535
151,0.8052719,0.7868362,0.2255535
153,0.7994187,0.7798419,0.2298502
155,0.7950006,0.7740492,0.2332305
158,0.7950006,0.7740492,0.2332305
160,0.7825971,0.758472,0.2414744
162,0.7825971,0.758472,0.2414744
164,0.7785863,0.7532945,0.2454926
166,0.7785863,0.7532945,0.2454926
169,0.774302,0.7472962,0.2486604
172,0.774302,0.7472962,0.2486604
174,0.7689767,0.7391344,0.2548778
176,0.7855918,0.7576976,0.2548778
179,0.7855918,0.7576976,0.2548778
181,0.8118062,0.7860898,0.254109
183,0.8118062,0.7860898,0.254109
185,0.8247196,0.8006416,0.2533378
188,0.8247196,0.8006416,0.2533378
190,0.8355626,0.8132511,0.2525642
192,0.8355626,0.8132511,0.2525642
194,0.854092,0.8320423,0.2548778
197,0.8829308,0.8625273,0.2579304
199,0.8829308,0.8625273,0.2579304
201,0.8921905,0.8720036,0.2594432
203,0.8921905,0.8720036,0.2594432
206,0.9004862,0.8807117,0.261696
208,0.9004862,0.8807117,0.261696
210,0.9149297,0.8956926,0.2654082
212,0.9215358,0.9022229,0.2668786
216,0.9215358,0.9022229,0.2668786
218,0.9264069,0.9065502,0.2705197
220,0.9264069,0.9065502,0.2705197
222,0.9358636,0.9147157,0.276953
225,0.9358636,0.9147157,0.276953
227,0.9408684,0.9187712,0.2804634
229,0.9408684,0.9187712,0.2804634
231,0.9458466,0.923021,0.2846186
233,0.9528548,0.9283059,0.2914124
236,0.9528548,0.9283059,0.2914124
238,0.9561348,0.9304113,0.2947506
240,0.9561348,0.9304113,0.2947506
242,0.9583834,0.9320924,0.2993615
245,0.9583834,0.9320924,0.2993615
247,0.9612376,0.9341894,0.3032579
249,0.9612376,0.9341894,0.3032579
251,0.964895,0.9358636,0.3109043
254,0.9661109,0.9360726,0.3140353
257,0.9661109,0.9360726,0.3140353
259,0.9669209,0.9360726,0.3177519
261,0.9669209,0.9360726,0.3177519
264,0.9699516,0.9373261,0.3250574
266,0.9699516,0.9373261,0.3250574
268,0.9693463,0.9360726,0.3274564
270,0.9695482,0.9352362,0.3304307
273,0.9695482,0.9352362,0.3304307
275,0.9699516,0.9352362,0.3322025
277,0.9699516,0.9352362,0.3322025
279,0.9707584,0.9348176,0.3345502
282,0.9715644,0.9352362,0.3374619
284,0.9743798,0.9375348,0.3403488
286,0.9743798,0.9375348,0.3403488
288,0.9767869,0.9394114,0.3409232
291,0.978988,0.9419076,0.3420692
293,0.978988,0.9419076,0.3420692
295,0.9827783,0.9446045,0.3460502
297,0.9827783,0.9446045,0.3460502
300,0.985562,0.9475003,0.3471792
303,0.985562,0.9475003,0.3471792
305,0.9883377,0.9495632,0.3483046
307,0.9883377,0.9495632,0.3483046
309,0.9905132,0.9520329,0.3477423
312,0.9960293,0.9587917,0.3471792
314,0.9960293,0.9587917,0.3471792
316,0.997992,0.9614412,0.3477423
318,0.997992,0.9614412,0.3477423
321,0.9981881,0.9618481,0.3466151
323,0.9981881,0.9618481,0.3466151
325,0.9960293,0.9612376,0.3449174
327,0.9942597,0.9600154,0.343781
330,0.9942597,0.9600154,0.343781
332,0.9926839,0.9591998,0.3426407
334,0.9926839,0.9591998,0.3426407
336,0.9903157,0.9587917,0.3386196
339,0.9903157,0.9587917,0.3386196
342,0.989525,0.9589957,0.3374619
344,0.989525,0.9589957,0.3374619
346,0.9893272,0.9606267,0.3339648
349,0.9877436,0.9626616,0.3262592
351,0.9877436,0.9626616,0.3262592
353,0.9867525,0.963068,0.3220336
355,0.9867525,0.963068,0.3220336
357,0.9859589,0.9634743,0.3195939
360,0.9859589,0.9634743,0.3195939
362,0.9841712,0.9638805,0.315279
364,0.9841712,0.9638805,0.315279
366,0.9807853,0.9640834,0.3058279
369,0.9791879,0.964895,0.3006659
371,0.9791879,0.964895,0.3006659
373,0.977788,0.9653005,0.2967354
375,0.977788,0.9653005,0.2967354
378,0.9753835,0.9655032,0.2880355
380,0.9753835,0.9655032,0.2880355
382,0.9723696,0.9657058,0.2762456
385,0.9699516,0.9657058,0.2676108
388,0.9699516,0.9657058,0.2676108
390,0.9679322,0.9661109,0.2601963
392,0.9679322,0.9661109,0.2601963
394,0.9373261,0.9331415,0.2556444
397,0.9373261,0.9331415,0.2556444
399,0.9257729,0.9208986,0.2533378
401,0.9257729,0.9208986,0.2533378
403,0.9095671,0.9035233,0.2517883
406,0.8959111,0.8888945,0.249446
408,0.8959111,0.8888945,0.249446
410,0.8656976,0.8570652,0.2454926
412,0.8656976,0.8570652,0.2454926
415,0.8543211,0.8446465,0.2438933
417,0.8543211,0.8446465,0.2438933
419,0.842791,0.8329825,0.2414744
421,0.8254311,0.8144533,0.2390311
423,0.8254311,0.8144533,0.2390311
427,0.81781,0.8064859,0.2365626
429,0.81781,0.8064859,0.2365626
431,0.8110828,0.7999081,0.235734
433,0.8110828,0.7999081,0.235734
436,0.8228193,0.8146936,0.2298502
438,0.8228193,0.8146936,0.2298502
440,0.840466,0.8364988,0.2211734
442,0.8547791,0.8536337,0.2167048
445,0.8547791,0.8536337,0.2167048
447,0.8547791,0.8536337,0.2167048
449,0.8547791,0.8536337,0.2167048
451,0.8702065,0.8715547,0.2121421
454,0.8702065,0.8715547,0.2121421
456,0.8829308,0.8862489,0.20842
458,0.8829308,0.8862489,0.20842
460,0.8937243,0.8985283,0.2055842
463,0.9048218,0.910857,0.2036718
465,0.9140738,0.9211111,0.2017412
467,0.9249271,0.9323022,0.2027088
470,0.9249271,0.9323022,0.2027088
473,0.9339799,0.9419076,0.2007689
475,0.9339799,0.9419076,0.2007689
477,0.9427382,0.9505931,0.2027088
479,0.9501812,0.9581792,0.2036718
482,0.9501812,0.9581792,0.2036718
484,0.9563395,0.9640834,0.2036718
486,0.9563395,0.9640834,0.2036718
488,0.9663135,0.9729732,0.20842
490,0.9663135,0.9729732,0.20842
493,0.9717657,0.9773876,0.2139789
495,0.9717657,0.9773876,0.2139789
497,0.9759852,0.9809847,0.2167048
499,0.9791879,0.98238,0.2238118
502,0.9791879,0.98238,0.2238118
504,0.9817823,0.9835745,0.2289973
506,0.9817823,0.9835745,0.2289973
508,0.9839723,0.9851648,0.2332305
512,0.9839723,0.9851648,0.2332305
514,0.9847674,0.9845687,0.2390311
516,0.9847674,0.9845687,0.2390311
518,0.9865541,0.9829774,0.2486604
521,0.987149,0.9825793,0.2533378
523,0.987149,0.9825793,0.2533378
525,0.9887336,0.9827783,0.2579304
527,0.9887336,0.9827783,0.2579304
530,0.9903157,0.9833755,0.261696
532,0.9903157,0.9833755,0.261696
534,0.9916978,0.9837734,0.2654082
536,0.9920924,0.9817823,0.272681
539,0.9920924,0.9817823,0.272681
541,0.9877436,0.9767869,0.2755364
543,0.9877436,0.9767869,0.2755364
545,0.9845687,0.9731742,0.276953
548,0.9845687,0.9731742,0.276953
550,0.9819816,0.9701535,0.2783625
552,0.9819816,0.9701535,0.2783625
555,0.9795874,0.9675278,0.2804634
557,0.9753835,0.9624583,0.2832403
560,0.9753835,0.9624583,0.2832403
562,0.9735762,0.960423,0.2846186
564,0.9735762,0.960423,0.2846186
566,0.9721684,0.9589957,0.2866737
569,0.9721684,0.9589957,0.2866737
571,0.9985801,0.9877436,0.2846186
573,0.9985801,0.9877436,0.2846186
575,1.001906,0.9909081,0.2859903
578,1.005026,0.993866,0.2866737
580,1.005026,0.993866,0.2866737
582,1.008136,0.9972074,0.2880355
584,1.008136,0.9972074,0.2880355
587,1.011237,1.000147,0.2880355
589,1.011237,1.000147,0.2880355
591,1.039105,1.029836,0.2859903
593,1.051274,1.04324,0.2839303
596,1.051274,1.04324,0.2839303
599,1.062016,1.05462,0.2832403
601,1.062016,1.05462,0.2832403
603,1.077745,1.071371,0.2811602
606,1.077745,1.071371,0.2811602
608,1.084081,1.078471,0.2804634
610,1.084081,1.078471,0.2804634
612,1.087505,1.082455,0.2783625
615,1.090919,1.086245,0.2776587
617,1.090919,1.086245,0.2776587
619,1.093248,1.089124,0.2762456
621,1.09593,1.092353,0.2748253
623,1.098783,1.095394,0.2733977
626,1.098783,1.095394,0.2733977
628,1.072284,1.070458,0.2631872
630,1.050716,1.050157,0.2548778
632,1.050716,1.050157,0.2548778
635,1.054434,1.053877,0.254109
637,1.054434,1.053877,0.254109
640,1.057954,1.057214,0.2533378
642,1.066061,1.06496,0.2556444
645,1.072832,1.071371,0.2571706
647,1.072832,1.071371,0.2571706
649,1.078471,1.077018,0.2579304
651,1.087505,1.085885,0.2594432
654,1.087505,1.085885,0.2594432
656,1.091278,1.089303,0.2601963
658,1.091278,1.089303,0.2601963
660,1.09289,1.091457,0.2594432
663,1.09289,1.091457,0.2594432
665,1.096108,1.094858,0.2571706
667,1.096108,1.094858,0.2571706
669,1.095573,1.095037,0.2556444
672,1.095394,1.095394,0.254109
674,1.095394,1.095394,0.254109
676,1.093248,1.094322,0.2486604
678,1.093248,1.094322,0.2486604
681,1.090919,1.093427,0.2414744
684,1.090919,1.093427,0.2414744
686,1.078834,1.082817,0.23239
688,1.06936,1.073925,0.2255535
690,1.06936,1.073925,0.2255535
693,1.052205,1.058879,0.2112177
695,1.052205,1.058879,0.2112177
697,1.044552,1.052205,0.2046302
699,1.044552,1.052205,0.2046302
702,1.035332,1.043802,0.1948336
704,1.035332,1.043802,0.1948336
706,1.02125,1.031355,0.1791368
708,1.01085,1.022016,0.1690205
711,1.01085,1.022016,0.1690205
713,1.002296,1.014329,0.1607126
715,1.002296,1.014329,0.1607126
717,0.993472,1.006777,0.1493534
720,0.993472,1.006777,0.1493534
722,0.9865541,1.000733,0.1412742
724,0.9865541,1.000733,0.1412742
727,0.9745807,0.9903157,0.1219466
730,0.9693463,0.9857605,0.1153499
732,0.9693463,0.9857605,0.1153499
734,0.9655032,0.98238,0.1083524
736,0.966516,0.9839723,0.09691329
739,0.9675278,0.985562,0.08846933
741,0.9675278,0.985562,0.08846933
743,0.9624583,0.9811842,0.07661668
745,0.9587917,0.9775878,0.0656106
748,0.9587917,0.9775878,0.0656106
750,0.9559301,0.9749822,0.05934703
752,0.9559301,0.9749822,0.05934703
754,0.9427382,0.9614412,0.03956468
756,0.9427382,0.9614412,0.03956468
759,0.9379522,0.9567486,0.02797646
761,0.9379522,0.9567486,0.02797646
763,0.8985283,0.916639,0.02797646
765,0.8656976,0.8831524,0.01978234
769,0.8656976,0.8831524,0.01978234
771,0.8425589,0.8600281,0.01978234
773,0.8425589,0.8600281,0.01978234
775,0.7745547,0.7920414,0.01978234
778,0.7745547,0.7920414,0.01978234
780,0.7335538,0.7506924,0.01978234
782,0.7335538,0.7506924,0.01978234
784,0.6912548,0.708588,0
787,0.6546168,0.6720214,0
789,0.6546168,0.6720214,0
791,0.6230683,0.6407191,0
793,0.6230683,0.6407191,0
796,0.6055493,0.6243232,0
798,0.6055493,0.6243232,0
800,0.5492961,0.5671728,-0.02797646
802,0.5143426,0.5308178,-0.04845664
805,0.5143426,0.5308178,-0.04845664
807,0.4841639,0.4985009,-0.0656106
809,0.4841639,0.4985009,-0.0656106
812,0.4626713,0.4735395,-0.08622923
814,0.4626713,0.4735395,-0.08622923
817,0.4441136,0.4502396,-0.1065312
819,0.4441136,0.4502396,-0.1065312
821,0.4614008,0.4635163,-0.1312212
823,0.4656223,0.4652019,-0.1398823
826,0.4656223,0.4652019,-0.1398823
828,0.4813265,0.4764233,-0.1570175
830,0.4813265,0.4764233,-0.1570175
832,0.4937682,0.4845679,-0.1724585
835,0.4937682,0.4845679,-0.1724585
837,0.4941643,0.4747775,-0.199792
839,0.4929749,0.4689721,-0.2112177
841,0.4929749,0.4689721,-0.2112177
844,0.5093729,0.4861804,-0.2130625
846,0.5093729,0.4861804,-0.2130625
848,0.530449,0.508604,-0.2167048
850,0.530449,0.508604,-0.2167048
854,0.5066768,0.4780633,-0.2315465
856,0.5066768,0.4780633,-0.2315465
858,0.4877876,0.4519747,-0.2446942
860,0.4449939,0.3876539,-0.2748253
863,0.4449939,0.3876539,-0.2748253
865,0.4311472,0.3620769,-0.2880355
867,0.4311472,0.3620769,-0.2880355
869,0.4182466,0.3374619,-0.3006659
872,0.4182466,0.3374619,-0.3006659
874,0.403483,0.2987072,-0.3208161
876,0.403483,0.2987072,-0.3208161
878,0.3995845,0.2839303,-0.3286494
880,0.3961419,0.2697954,-0.3363003
883,0.3961419,0.2697954,-0.3363003
885,0.3936644,0.25101,-0.3477423
887,0.3936644,0.25101,-0.3477423
889,0.393167,0.2430897,-0.3527702
892,0.393167,0.2430897,-0.3527702
894,0.393167,0.2390311,-0.354982
897,0.3936644,0.2349025,-0.3577275
899,0.3936644,0.2349025,-0.3577275
902,0.392669,0.2272819,-0.3615361
904,0.392669,0.2272819,-0.3615361
906,0.392669,0.2246844,-0.3631561
908,0.392669,0.2246844,-0.3631561
911,0.3936644,0.2414744,-0.3516591
913,0.3936644,0.2414744,-0.3516591
915,0.4005627,0.2668786,-0.3380413
917,0.4159008,0.3102743,-0.3177519
920,0.4159008,0.3102743,-0.3177519
922,0.4338616,0.3471792,-0.3019647
924,0.4338616,0.3471792,-0.3019647
926,0.4387946,0.3663747,-0.2853053
929,0.4387946,0.3663747,-0.2853053
931,0.4484978,0.393167,-0.2609472
933,0.4484978,0.393167,-0.2609472
935,0.4471871,0.3971285,-0.25101
939,0.4454334,0.4020255,-0.2365626
941,0.4454334,0.4020255,-0.2365626
943,0.4484978,0.4068635,-0.23239
945,0.4484978,0.4068635,-0.23239
947,0.450674,0.4111691,-0.2281412
950,0.450674,0.4111691,-0.2281412
952,0.4584226,0.4270431,-0.2139789
954,0.4652019,0.4396856,-0.2027088
956,0.4652019,0.4396856,-0.2027088
959,0.4714689,0.450674,-0.191797
961,0.4714689,0.450674,-0.191797
963,0.4714689,0.450674,-0.191797
965,0.4714689,0.450674,-0.191797
968,0.4813265,0.4689721,-0.1735894
970,0.4813265,0.4689721,-0.1735894
972,0.4901886,0.4845679,-0.1594904
974,0.4961402,0.4965344,-0.1412742
977,0.4961402,0.4965344,-0.1412742
979,0.501241,0.5074486,-0.1266688
982,0.501241,0.5074486,-0.1266688
984,0.5066768,0.5158621,-0.1136409
987,0.5066768,0.5158621,-0.1136409
989,0.5248867,0.5392296,-0.09691329
991,0.5248867,0.5392296,-0.09691329
993,0.5319225,0.5478694,-0.09065409
996,0.5374122,0.5549665,-0.08622923
998,0.5374122,0.5549665,-0.08622923
1000,0.5428462,0.5612772,-0.08156469
1002,0.5428462,0.5612772,-0.08156469
1005,0.5865081,0.6055493,-0.07912937
1007,0.5865081,0.6055493,-0.07912937
1009,0.6081289,0.6274496,-0.08156469
1012,0.6262009,0.645587,-0.07912937
1014,0.6262009,0.645587,-0.07912937
1016,0.6422443,0.6608641,-0.07912937
1019,0.6422443,0.6608641,-0.07912937
1021,0.6428534,0.6611602,-0.07661668
1024,0.6440698,0.6620474,-0.07401875
1027,0.6440698,0.6620474,-0.07401875
1029,0.6638185,0.6792617,-0.07132626
1031,0.6638185,0.6792617,-0.07132626
1034,0.6720214,0.6861406,-0.07132626
1036,0.6720214,0.6861406,-0.07132626
1038,0.6629335,0.6755064,-0.07132626
1041,0.6467983,0.6567059,-0.06852804
1043,0.6467983,0.6567059,-0.06852804
1045,0.6394964,0.6483091,-0.0656106
1048,0.6394964,0.6483091,-0.0656106
1050,0.6339648,0.6422443,-0.0656106
1052,0.629007,0.6373509,-0.0656106
1054,0.629007,0.6373509,-0.0656106
1057,0.6255757,0.633656,-0.06852804
1059,0.6255757,0.633656,-0.06852804
1061,0.6081289,0.6170725,-0.06852804
1064,0.6081289,0.6170725,-0.06852804
1067,0.5938025,0.6032831,-0.07132626
1069,0.5757331,0.5865081,-0.07661668
1072,0.5757331,0.5865081,-0.07661668
1074,0.5308178,0.5421248,-0.09691329
1076,0.5308178,0.5421248,-0.09691329
1079,0.5066768,0.5166202,-0.1083524
1081,0.4869847,0.4961402,-0.1186941
1083,0.4869847,0.4961402,-0.1186941
1086,0.4519747,0.4562834,-0.1467098
1088,0.4519747,0.4562834,-0.1467098
1090,0.4392403,0.4410186,-0.1570175
1093,0.4392403,0.4410186,-0.1570175
1095,0.4279585,0.4284154,-0.166689
1097,0.4187142,0.4168407,-0.1735894
1100,0.4187142,0.4168407,-0.1735894
1102,0.4410186,0.4476244,-0.1724585
1104,0.4410186,0.4476244,-0.1724585
1107,0.4489339,0.4584226,-0.1713202
1110,0.4489339,0.4584226,-0.1713202
1112,0.4449939,0.456712,-0.1724585
1115,0.4419051,0.454995,-0.1735894
1117,0.4419051,0.454995,-0.1735894
1119,0.4571402,0.4768338,-0.165511
1122,0.4571402,0.4768338,-0.165511
1124,0.4809199,0.509757,-0.1545051
1126,0.5000685,0.5337587,-0.1426525
1129,0.5000685,0.5337587,-0.1426525
1131,0.5166202,0.5539077,-0.1356209
1133,0.5166202,0.5539077,-0.1356209
1136,0.5293413,0.5695826,-0.1266688
1138,0.5293413,0.5695826,-0.1266688
1140,0.5500081,0.5941319,-0.1136409
1142,0.5588315,0.6032831,-0.1083524
1145,0.5588315,0.6032831,-0.1083524
1147,0.5668277,0.6113381,-0.1046783
1149,0.5668277,0.6113381,-0.1046783
1153,0.5818186,0.6252628,-0.1008706
1155,0.6058724,0.6474031,-0.09278741
1157,0.6058724,0.6474031,-0.09278741
1160,0.6145305,0.6546168,-0.08846933
1162,0.6145305,0.6546168,-0.08846933
1164,0.6224399,0.661456,-0.08622923
1167,0.6224399,0.661456,-0.08622923
1169,0.6252628,0.6626383,-0.07661668
1171,0.628073,0.6644077,-0.07401875
1174,0.628073,0.6644077,-0.07401875
1176,0.6324196,0.6661724,-0.05934703
1178,0.6324196,0.6661724,-0.05934703
1181,0.6351982,0.6676395,-0.05233916
1183,0.6367366,0.6673463,-0.04423466
1185,0.6367366,0.6673463,-0.04423466
1188,0.6385778,0.6679325,-0.03426402
1190,0.6385778,0.6679325,-0.03426402
1192,0.6410245,0.6691033,-0.03426402
1196,0.6410245,0.6691033,-0.03426402
1198,0.6339648,0.6584912,0
1200,0.6233823,0.6452838,0
1203,0.6233823,0.6452838,0
1205,0.615167,0.6348901,0
1207,0.615167,0.6348901,0
1210,0.6013339,0.6177064,0
1212,0.6013339,0.6177064,0
1214,0.5961047,0.6106976,0.01978234
1217,0.5851721,0.5974163,0.01978234
1219,0.5851721,0.5974163,0.01978234
1221,0.5695826,0.5787839,0.01978234
1224,0.5695826,0.5787839,0.01978234
1226,0.5602303,0.5675176,0.02797646
1228,0.5528469,0.5588315,0.02797646
1230,0.5528469,0.5588315,0.02797646
1233,0.5464389,0.5517841,0.01978234
1235,0.5464389,0.5517841,0.01978234
1238,0.53008,0.5326577,0
1241,0.53008,0.5326577,0
1243,0.5185105,0.5203939,0
1245,0.5093729,0.5105241,0
1248,0.5093729,0.5105241,0
1250,0.5020211,0.5024107,0
1252,0.5020211,0.5024107,0
1255,0.4760123,0.4751895,-0.02797646
1257,0.4635163,0.4622481,-0.04423466
1259,0.4635163,0.4622481,-0.04423466
1262,0.4445539,0.4423477,-0.06255726
1264,0.4445539,0.4423477,-0.06255726
1266,0.4352126,0.4320539,-0.07661668
1269,0.4352126,0.4320539,-0.07661668
1271,0.4205793,0.416371,-0.08846933
1273,0.414487,0.4087828,-0.09691329
1276,0.414487,0.4087828,-0.09691329
1278,0.4087828,0.4020255,-0.1027921
1281,0.4087828,0.4020255,-0.1027921
1284,0.4000739,0.3911712,-0.1119058
1286,0.4000739,0.3911712,-0.1119058
1288,0.3966355,0.386643,-0.1153499
1291,0.3921704,0.3794918,-0.1235407
1293,0.3921704,0.3794918,-0.1235407
1295,0.3911712,0.3769049,-0.1266688
1298,0.3911712,0.3769049,-0.1266688
1300,0.3835945,0.3658403,-0.1341704
1302,0.3774237,0.3577275,-0.1341704
1305,0.3774237,0.3577275,-0.1341704
1307,0.3642322,0.3414966,-0.1398823
1309,0.3642322,0.3414966,-0.1398823
1312,0.3577275,0.332791,-0.1426525
1314,0.3577275,0.332791,-0.1426525
1316,0.3460502,0.3165179,-0.1467098
1318,0.3414966,0.309643,-0.1506579
1321,0.3414966,0.309643,-0.1506579
1324,0.3374619,0.3032579,-0.1532334
1326,0.3374619,0.3032579,-0.1532334
1329,0.3316129,0.2914124,-0.1607126
1331,0.3292442,0.2859903,-0.1631294
1333,0.3292442,0.2859903,-0.1631294
1336,0.3292442,0.2825486,-0.1701742
1338,0.3292442,0.2825486,-0.1701742
1340,0.332791,0.2832403,-0.174713
1343,0.332791,0.2832403,-0.174713
1345,0.3363003,0.2853053,-0.1769387
1347,0.3386196,0.2873554,-0.1780411
1350,0.3386196,0.2873554,-0.1780411
1352,0.3499859,0.2987072,-0.1791368
1354,0.3499859,0.2987072,-0.1791368
1357,0.3533245,0.3019647,-0.1813082
1359,0.3679734,0.3195939,-0.1791368
1361,0.3679734,0.3195939,-0.1791368
1364,0.3727285,0.3256589,-0.1780411
1367,0.3727285,0.3256589,-0.1780411
1369,0.3995845,0.3544303,-0.1823843
1372,0.3995845,0.3544303,-0.1823843
1374,0.4092611,0.365305,-0.1823843
1376,0.4173099,0.373777,-0.183454
1379,0.4173099,0.373777,-0.183454
1381,0.4419051,0.4000739,-0.1855749
1383,0.4419051,0.4000739,-0.1855749
1386,0.4554249,0.4149588,-0.1855749
1388,0.4554249,0.4149588,-0.1855749
1390,0.4747775,0.4365593,-0.1855749
1393,0.4897892,0.4532716,-0.1845175
1395,0.4897892,0.4532716,-0.1845175
1397,0.5116726,0.4780633,-0.1823843
1400,0.5116726,0.4780633,-0.1823843
1402,0.5147229,0.4825446,-0.1802258
1404,0.5203939,0.4905876,-0.1769387
1406,0.5203939,0.4905876,-0.1769387
1410,0.5188877,0.4905876,-0.1724585
1412,0.5188877,0.4905876,-0.1724585
1414,0.518133,0.4905876,-0.1713202
1417,0.518133,0.4905876,-0.1713202
1419,0.5162413,0.4937682,-0.1594904
1421,0.5162413,0.4949555,-0.1557664
1424,0.5162413,0.4949555,-0.1557664
1426,0.5120549,0.4945601,-0.1440177
1428,0.5120549,0.4945601,-0.1440177
1431,0.5089886,0.4937682,-0.1398823
1433,0.5196414,0.5059038,-0.1341704
1435,0.5196414,0.5059038,-0.1341704
1438,0.5370479,0.5248867,-0.1297215
1440,0.5370479,0.5248867,-0.1297215
1442,0.5230194,0.5128186,-0.1219466
1445,0.5230194,0.5128186,-0.1219466
1447,0.5028,0.4957456,-0.1101434
1449,0.5078341,0.5016313,-0.1083524
1453,0.5078341,0.5016313,-0.1083524
1455,0.5128186,0.5062904,-0.1065312
1457,0.5128186,0.5062904,-0.1065312
1460,0.5274898,0.5211454,-0.1046783
1462,0.5274898,0.5211454,-0.1046783
1464,0.5363187,0.53008,-0.1065312
1467,0.5414024,0.5348573,-0.1046783
1469,0.5414024,0.5348573,-0.1046783
1471,0.5392296,0.533025,-0.1027921
1474,0.5392296,0.533025,-0.1027921
1476,0.5337587,0.5286014,-0.09891172
1478,0.5311863,0.5260038,-0.09891172
1481,0.5311863,0.5260038,-0.09891172
1483,0.5293413,0.5237671,-0.09891172
1485,0.5293413,0.5237671,-0.09891172
1488,0.5297108,0.5241405,-0.1008706
1490,0.5297108,0.5241405,-0.1008706
1492,0.530449,0.5241405,-0.1027921
1495,0.5337587,0.5267473,-0.1083524
1498,0.5337587,0.5267473,-0.1083524
1500,0.5348573,0.5274898,-0.1101434
1502,0.5348573,0.5274898,-0.1101434
1505,0.5311863,0.5203939,-0.1219466
1507,0.5293413,0.5162413,-0.1312212
1509,0.5293413,0.5162413,-0.1312212
1512,0.5260038,0.509757,-0.1412742
1514,0.5260038,0.509757,-0.1412742
1516,0.5237671,0.5051297,-0.1480375
1519,0.5237671,0.5051297,-0.1480375
1521,0.5218958,0.5028,-0.1519511
1523,0.5218958,0.4988932,-0.1631294
1526,0.5218958,0.4988932,-0.1631294
1528,0.5230194,0.4969283,-0.1724585
1530,0.5230194,0.4969283,-0.1724585
1533,0.5233933,0.4953507,-0.1780411
1536,0.5237671,0.4937682,-0.1823843
1538,0.5237671,0.4937682,-0.1823843
1541,0.5263757,0.4929749,-0.1928145
1543,0.5263757,0.4929749,-0.1928145
1545,0.5289715,0.4937682,-0.1978235
1548,0.5289715,0.4937682,-0.1978235
1550,0.5319225,0.4937682,-0.2074791
1552,0.533025,0.4929749,-0.2121421
1555,0.533025,0.4929749,-0.2121421
1557,0.5359538,0.4933717,-0.220287
1559,0.5359538,0.4933717,-0.220287
1562,0.5377761,0.4937682,-0.2238118
1564,0.5377761,0.4937682,-0.2238118
1566,0.5392296,0.4929749,-0.2298502
1569,0.5395923,0.4917827,-0.23239
1571,0.5395923,0.4917827,-0.23239
1573,0.5403171,0.4913847,-0.2365626
1575,0.5403171,0.4913847,-0.2365626
1579,0.5406791,0.4913847,-0.2373883
1581,0.5414024,0.4917827,-0.2390311
1583,0.5414024,0.4917827,-0.2390311
1586,0.5399548,0.4897892,-0.2414744
1588,0.5399548,0.4897892,-0.2414744
1590,0.5388666,0.4877876,-0.2414744
1593,0.5388666,0.4877876,-0.2414744
1595,0.5414024,0.4905876,-0.2438933
1597,0.5428462,0.4913847,-0.2446942
1600,0.5428462,0.4913847,-0.2446942
1602,0.5421248,0.4917827,-0.2414744
1604,0.5421248,0.4917827,-0.2414744
1607,0.5417637,0.4921804,-0.2406627
1609,0.5435666,0.4945601,-0.2390311
1611,0.5435666,0.4945601,-0.2390311
1614,0.5442861,0.4953507,-0.2373883
1616,0.5442861,0.4953507,-0.2373883
1618,0.5435666,0.4957456,-0.234068
1622,0.5435666,0.4957456,-0.234068
1624,0.5432066,0.4957456,-0.2332305
1626,0.5403171,0.4929749,-0.2306999
1629,0.5403171,0.4929749,-0.2306999
1631,0.5388666,0.4929749,-0.2298502
1633,0.5388666,0.4929749,-0.2298502
1636,0.5377761,0.4925778,-0.2281412
1638,0.5370479,0.4929749,-0.2255535
1640,0.5370479,0.4929749,-0.2255535
1643,0.5374122,0.4929749,-0.2255535
1645,0.5374122,0.4929749,-0.2255535
1647,0.5370479,0.4933717,-0.2246844
1650,0.5370479,0.4933717,-0.2246844
1652,0.5359538,0.4929749,-0.2238118
1654,0.5352231,0.4925778,-0.2229358
1657,0.5352231,0.4925778,-0.2229358
1659,0.5322903,0.4897892,-0.2211734
1661,0.5322903,0.4897892,-0.2211734
1664,0.53008,0.4877876,-0.2211734
1667,0.53008,0.4877876,-0.2211734
1669,0.5267473,0.4845679,-0.220287
1671,0.5252593,0.4829499,-0.2185032
1674,0.5252593,0.4829499,-0.2185032
1676,0.5177552,0.4760123,-0.2167048
1678,0.5177552,0.4760123,-0.2167048
1681,0.5154827,0.4731261,-0.2158
1683,0.5039662,0.4618246,-0.2148914
1685,0.5039662,0.4618246,-0.2148914
1688,0.5000685,0.4575681,-0.2139789
1690,0.5000685,0.4575681,-0.2139789
1692,0.4917827,0.4484978,-0.2139789
1695,0.4917827,0.4484978,-0.2139789
1697,0.4796977,0.4356619,-0.2130625
1699,0.4710537,0.4261257,-0.2148914
1702,0.4710537,0.4261257,-0.2148914
1704,0.4588492,0.4121198,-0.2167048
1707,0.4588492,0.4121198,-0.2167048
1710,0.450674,0.4029978,-0.2176059
1712,0.4401304,0.3906707,-0.220287
1714,0.4401304,0.3906707,-0.220287
1717,0.4238235,0.3748225,-0.2167048
1719,0.4238235,0.3748225,-0.2167048
1721,0.410693,0.3615361,-0.2148914
1724,0.410693,0.3615361,-0.2148914
1726,0.3820612,0.332791,-0.2093567
1728,0.3669084,0.3171355,-0.2074791
1731,0.3669084,0.3171355,-0.2074791
1733,0.3403488,0.289391,-0.2036718
1735,0.3403488,0.289391,-0.2036718
1738,0.3280534,0.276953,-0.2017412
1740,0.3280534,0.276953,-0.2017412
1742,0.3077414,0.2548778,-0.1988102
1745,0.2987072,0.2454926,-0.1978235
1747,0.2987072,0.2454926,-0.1978235
1750,0.2853053,0.2298502,-0.1978235
1752,0.2853053,0.2298502,-0.1978235
1755,0.2797648,0.2229358,-0.1978235
1757,0.2755364,0.2176059,-0.1978235
1759,0.2755364,0.2176059,-0.1978235
1762,0.2676108,0.2074791,-0.1978235
1764,0.2676108,0.2074791,-0.1978235
1766,0.2646699,0.2036718,-0.1978235
1769,0.2646699,0.2036718,-0.1978235
1771,0.261696,0.1988102,-0.1978235
1773,0.2579304,0.1928145,-0.1988102
1776,0.2579304,0.1928145,-0.1988102
1778,0.2548778,0.1897456,-0.199792
1780,0.2548778,0.1897456,-0.199792
1783,0.2548778,0.1866263,-0.2017412
1785,0.254109,0.1855749,-0.2017412
1787,0.254109,0.1855749,-0.2017412
1790,0.2525642,0.1823843,-0.2027088
1793,0.2525642,0.1823843,-0.2027088
1795,0.25101,0.1813082,-0.2027088
1798,0.25101,0.1813082,-0.2027088
1800,0.249446,0.1802258,-0.2017412
1802,0.249446,0.1780411,-0.2027088
1805,0.249446,0.1780411,-0.2027088
1807,0.2478722,0.1769387,-0.2017412
1809,0.2478722,0.1769387,-0.2017412
1812,0.2517883,0.1845175,-0.2007689
1814,0.2533378,0.1866263,-0.199792
1816,0.2533378,0.1866263,-0.199792
1819,0.2586879,0.1928145,-0.1988102
1821,0.2586879,0.1928145,-0.1988102
1823,0.2601963,0.1958353,-0.1988102
1826,0.2601963,0.1958353,-0.1988102
1828,0.2631872,0.2017412,-0.1968319
1830,0.2690692,0.2102893,-0.1958353
1833,0.2690692,0.2102893,-0.1958353
1836,0.2741124,0.2167048,-0.1958353
1838,0.2741124,0.2167048,-0.1958353
1840,0.2790645,0.2255535,-0.1938267
1843,0.2790645,0.2255535,-0.1938267
1845,0.2825486,0.2272819,-0.1948336
1847,0.2859903,0.2332305,-0.1938267
1850,0.2859903,0.2332305,-0.1938267
1852,0.2880355,0.2365626,-0.1938267
1854,0.2880355,0.2365626,-0.1938267
1857,0.2914124,0.2414744,-0.191797
1859,0.3019647,0.2525642,-0.1948336
1861,0.3019647,0.2525642,-0.1948336
1864,0.3177519,0.268341,-0.1978235
1866,0.3177519,0.268341,-0.1978235
1868,0.3262592,0.2762456,-0.2017412
1871,0.3262592,0.2762456,-0.2017412
1873,0.3339648,0.2832403,-0.2036718
1875,0.3403488,0.2887141,-0.2065338
1879,0.3403488,0.2887141,-0.2065338
1881,0.3403488,0.2887141,-0.2065338
1883,0.3403488,0.2887141,-0.2065338
1886,0.3471792,0.2940859,-0.2093567
1888,0.3516591,0.2987072,-0.2121421
1890,0.3516591,0.2987072,-0.2121421
1893,0.3588198,0.3045456,-0.2148914
1895,0.3588198,0.3045456,-0.2148914
1897,0.3609945,0.3064671,-0.2158
1900,0.3609945,0.3064671,-0.2158
1902,0.365305,0.3109043,-0.2176059
1904,0.3679734,0.3127867,-0.2176059
1907,0.3679734,0.3127867,-0.2176059
1909,0.3711503,0.3171355,-0.2167048
1911,0.3711503,0.3171355,-0.2167048
1914,0.3722032,0.3195939,-0.2158
1916,0.3722032,0.3195939,-0.2158
1918,0.3758652,0.3232465,-0.2139789
1922,0.3769049,0.3268584,-0.2130625
1924,0.3769049,0.3268584,-0.2130625
1926,0.3774237,0.3280534,-0.2112177
1928,0.3774237,0.3280534,-0.2112177
1931,0.3794918,0.3310224,-0.2102893
1933,0.3835945,0.3363003,-0.2074791
1935,0.3835945,0.3363003,-0.2074791
1938,0.3891652,0.3449174,-0.2046302
1940,0.3891652,0.3449174,-0.2046302
1942,0.393167,0.3494264,-0.2036718
1945,0.393167,0.3494264,-0.2036718
1947,0.3990945,0.3555328,-0.2017412
1949,0.3976209,0.3566318,-0.1978235
1952,0.3976209,0.3566318,-0.1978235
1954,0.3961419,0.358274,-0.1928145
1956,0.3961419,0.358274,-0.1928145
1959,0.403483,0.3658403,-0.191797
1961,0.4140146,0.3779418,-0.1897456
1964,0.4140146,0.3779418,-0.1897456
1967,0.4224361,0.3856296,-0.1907741
1969,0.4224361,0.3856296,-0.1907741
1971,0.429328,0.3921704,-0.191797
1974,0.429328,0.3921704,-0.191797
1976,0.4427898,0.4073442,-0.1928145
1978,0.4562834,0.4210443,-0.1938267
1981,0.4562834,0.4210443,-0.1938267
1983,0.4622481,0.427501,-0.1948336
1985,0.4622481,0.427501,-0.1948336
1988,0.4714689,0.4365593,-0.1958353
1990,0.4756011,0.4410186,-0.1968319
1992,0.4756011,0.4410186,-0.1968319
1995,0.4825446,0.4476244,-0.1988102
1997,0.4825446,0.4476244,-0.1988102
1999,0.4853748,0.4502396,-0.1988102
2002,0.4853748,0.4502396,-0.1988102
2004,0.4881886,0.4532716,-0.2007689
2007,0.4917827,0.4562834,-0.2036718
2010,0.4917827,0.4562834,-0.2036718
2012,0.4937682,0.4571402,-0.2046302
2014,0.4937682,0.4571402,-0.2046302
2016,0.4973219,0.4597013,-0.2074791
2019,0.4973219,0.4597013,-0.2074791
2021,0.4996771,0.4609765,-0.2093567
2023,0.5024107,0.4626713,-0.2121421
2026,0.5024107,0.4626713,-0.2121421
2028,0.5031891,0.463094,-0.2121421
2030,0.5031891,0.463094,-0.2121421
2033,0.5059038,0.4643598,-0.2158
2035,0.5062904,0.464781,-0.2167048
2037,0.5062904,0.464781,-0.2167048
2040,0.5074486,0.4652019,-0.2167048
2042,0.5074486,0.4652019,-0.2167048
2044,0.5074486,0.4639383,-0.2193969
2048,0.5074486,0.4639383,-0.2193969
2050,0.5078341,0.4635163,-0.2220564
2052,0.5051297,0.4597013,-0.2238118
2055,0.5051297,0.4597013,-0.2238118
2057,0.5039662,0.4588492,-0.2238118
2059,0.5039662,0.4588492,-0.2238118
2062,0.5024107,0.456712,-0.2246844
2064,0.5024107,0.4562834,-0.2255535
2066,0.5024107,0.4562834,-0.2255535
2069,0.4985009,0.4528397,-0.2246844
2071,0.4985009,0.4528397,-0.2246844
2073,0.4969283,0.4515415,-0.2246844
2076,0.4969283,0.4515415,-0.2246844
2078,0.508604,0.463094,-0.2255535
2080,0.5128186,0.468137,-0.2255535
2083,0.5128186,0.468137,-0.2255535
2085,0.5260038,0.4813265,-0.2264194
2087,0.5260038,0.4813265,-0.2264194
2091,0.5308178,0.4861804,-0.2264194
2093,0.5395923,0.4965344,-0.2255535
2095,0.5395923,0.4965344,-0.2255535
2098,0.5428462,0.5000685,-0.2264194
2100,0.5428462,0.5000685,-0.2264194
2102,0.5359538,0.4925778,-0.2255535
2104,0.5359538,0.4925778,-0.2255535
2107,0.5337587,0.4909863,-0.2255535
2109,0.5311863,0.4873863,-0.2255535
2111,0.5311863,0.4873863,-0.2255535
2114,0.5271187,0.4821389,-0.2246844
2116,0.5271187,0.4821389,-0.2246844
2118,0.5355885,0.4913847,-0.2255535
2121,0.5355885,0.4913847,-0.2255535
2123,0.5435666,0.4992853,-0.2272819
2125,0.5556712,0.5116726,-0.2298502
2128,0.5556712,0.5116726,-0.2298502
2130,0.5616257,0.5166202,-0.23239
2132,0.5616257,0.5166202,-0.23239
2136,0.5688952,0.5245137,-0.2332305
2138,0.5804718,0.5370479,-0.235734
2140,0.5804718,0.5370479,-0.235734
2143,0.5868416,0.5421248,-0.2373883
2145,0.5868416,0.5421248,-0.2373883
2147,0.5967609,0.5521386,-0.2406627
2150,0.5967609,0.5521386,-0.2406627
2152,0.6000308,0.5542608,-0.2446942
2154,0.6049027,0.5584812,-0.2486604
2157,0.6049027,0.5584812,-0.2486604
2159,0.6090934,0.5626699,-0.249446
2161,0.6090934,0.5626699,-0.249446
2164,0.6158028,0.5702693,-0.249446
2166,0.615167,0.5706123,-0.2470816
2168,0.615167,0.5706123,-0.2470816
2171,0.6161205,0.5712977,-0.2462884
2173,0.6161205,0.5712977,-0.2462884
2176,0.6173896,0.5730078,-0.2454926
2179,0.6173896,0.5730078,-0.2454926
2181,0.6196041,0.5753932,-0.2430897
2183,0.6208661,0.5767518,-0.2422834
2185,0.6208661,0.5767518,-0.2422834
2188,0.6205508,0.5777687,-0.2414744
2190,0.6205508,0.5777687,-0.2414744
2192,0.6208661,0.5784457,-0.2398483
2195,0.6208661,0.5784457,-0.2398483
2197,0.6218109,0.5797972,-0.2373883
2199,0.6224399,0.5804718,-0.2365626
2202,0.6224399,0.5804718,-0.2365626
2204,0.6055493,0.5647526,-0.2315465
2206,0.6055493,0.5647526,-0.2315465
2209,0.6029587,0.5623221,-0.2306999
2211,0.5983981,0.5584812,-0.2281412
2213,0.5983981,0.5584812,-0.2281412
2216,0.5911604,0.5517841,-0.2264194
2219,0.5911604,0.5517841,-0.2264194
2221,0.5811456,0.5417637,-0.2246844
2224,0.5811456,0.5417637,-0.2246844
2226,0.577091,0.5381398,-0.2238118
2228,0.5623221,0.5233933,-0.220287
2231,0.5623221,0.5233933,-0.220287
2233,0.5657911,0.5267473,-0.220287
2235,0.5657911,0.5267473,-0.220287
2238,0.5695826,0.5308178,-0.220287
2240,0.5671728,0.5289715,-0.2185032
2242,0.5671728,0.5289715,-0.2185032
2245,0.5637122,0.5263757,-0.2176059
2247,0.5637122,0.5263757,-0.2176059
2249,0.5626699,0.5248867,-0.2167048
2252,0.5626699,0.5248867,-0.2167048
2254,0.5598809,0.5218958,-0.2167048
2256,0.5546138,0.5169988,-0.2148914
2259,0.5546138,0.5169988,-0.2148914
2262,0.5521386,0.5147229,-0.2139789
2264,0.5521386,0.5147229,-0.2139789
2267,0.5482264,0.5109072,-0.2130625
2269,0.5467969,0.5101407,-0.2130625
2271,0.5467969,0.5101407,-0.2130625
2273,0.5464389,0.5093729,-0.2130625
2276,0.5464389,0.5093729,-0.2130625
2278,0.5467969,0.509757,-0.2130625
2280,0.5467969,0.509757,-0.2130625
2283,0.5471546,0.509757,-0.2130625
2285,0.5500081,0.5120549,-0.2158
2287,0.5500081,0.5120549,-0.2158
2290,0.5507192,0.5135812,-0.2176059
2292,0.5507192,0.5135812,-0.2176059
2294,0.5723243,0.5344914,-0.2220564
2297,0.5723243,0.5344914,-0.2220564
2299,0.5824909,0.5439265,-0.2255535
2301,0.583833,0.5453635,-0.2272819
2305,0.583833,0.5453635,-0.2272819
2307,0.5858405,0.5467969,-0.2298502
2309,0.5858405,0.5467969,-0.2298502
2312,0.6271377,0.5855064,-0.2422834
2314,0.6431577,0.6006827,-0.2470816
2316,0.6431577,0.6006827,-0.2470816
2319,0.651921,0.6061952,-0.2571706
2321,0.651921,0.6061952,-0.2571706
2323,0.6561096,0.6090934,-0.2609472
2326,0.6561096,0.6090934,-0.2609472
2328,0.6575991,0.6084505,-0.268341
2330,0.6590852,0.6090934,-0.2705197
2333,0.6590852,0.6090934,-0.2705197
2335,0.6608641,0.6097356,-0.2755364
2337,0.6608641,0.6097356,-0.2755364
2340,0.6629335,0.6100564,-0.276953
2342,0.6889865,0.6348901,-0.2859903
2344,0.6889865,0.6348901,-0.2859903
2348,0.6996954,0.6449805,-0.2887141
2350,0.6996954,0.6449805,-0.2887141
2352,0.7308815,0.6749268,-0.2940859
2355,0.7308815,0.6749268,-0.2940859
2357,0.7436213,0.687565,-0.2967354
2359,0.7372789,0.680413,-0.2967354
2361,0.7372789,0.680413,-0.2967354
2364,0.7359507,0.6786853,-0.2973941
2366,0.7359507,0.6786853,-0.2973941
2368,0.7512136,0.6940797,-0.3006659
2371,0.7512136,0.6940797,-0.3006659
2373,0.7582139,0.7005339,-0.3019647
2375,0.7651502,0.707759,-0.3032579
2378,0.7651502,0.707759,-0.3032579
2380,0.7773286,0.7192771,-0.3058279
2382,0.7773286,0.7192771,-0.3058279
2385,0.7828471,0.7246976,-0.3064671
2387,0.7893192,0.7311491,-0.3077414
2390,0.7893192,0.7311491,-0.3077414
2393,0.7925354,0.7343537,-0.3090104
2395,0.7925354,0.7343537,-0.3090104
2397,0.7967216,0.7393991,-0.3083766
2400,0.7967216,0.7393991,-0.3083766
2402,0.8016186,0.7444103,-0.3083766
2404,0.8028382,0.745461,-0.3090104
2407,0.8028382,0.745461,-0.3090104
2409,0.7878303,0.7306137,-0.3058279
2411,0.7755645,0.7187329,-0.3032579
2414,0.7659171,0.709416,-0.3019647
2416,0.7654059,0.709416,-0.301316
2418,0.7654059,0.709416,-0.301316
2421,0.7656615,0.7096917,-0.3006659
2423,0.7656615,0.7096917,-0.3006659
2425,0.7697397,0.7143636,-0.3006659
2428,0.7697397,0.7143636,-0.3006659
2430,0.7770769,0.7222635,-0.301316
2433,0.7798419,0.7257769,-0.301316
2436,0.7798419,0.7257769,-0.301316
2438,0.783097,0.7287365,-0.301316
2440,0.783097,0.7287365,-0.301316
2443,0.7873334,0.733287,-0.3019647
2445,0.7888232,0.7348864,-0.3019647
2447,0.7888232,0.7348864,-0.3019647
2449,0.7898148,0.7359507,-0.302612
2452,0.7898148,0.7359507,-0.302612
2454,0.7895671,0.7359507,-0.3019647
2456,0.7895671,0.7359507,-0.3019647
2459,0.7888232,0.7351527,-0.3019647
2461,0.7888232,0.7348864,-0.302612
2463,0.7888232,0.7348864,-0.302612
2466,0.7890712,0.7346201,-0.3032579
2468,0.7890712,0.7346201,-0.3032579
2470,0.7920414,0.7378095,-0.302612
2473,0.7920414,0.7378095,-0.302612
2476,0.7930291,0.7391344,-0.3019647
2478,0.7930291,0.7396637,-0.301316
2481,0.7930291,0.7396637,-0.301316
2483,0.7935224,0.7401926,-0.301316
2485,0.7935224,0.7401926,-0.301316
2488,0.7969672,0.7436213,-0.301316
2490,0.798439,0.7451985,-0.3006659
2492,0.798439,0.7451985,-0.3006659
2495,0.8001527,0.7472962,-0.3000144
2497,0.8001527,0.7472962,-0.3000144
2499,0.8001527,0.7472962,-0.3000144
2502,0.8001527,0.7472962,-0.3000144
2504,0.7994187,0.7465102,-0.3006659
2506,0.798439,0.7459858,-0.2993615
2509,0.798439,0.7459858,-0.2993615
2511,0.7972127,0.7444103,-0.2987072
2513,0.7972127,0.7444103,-0.2987072
2516,0.7967216,0.7446731,-0.2980514
2519,0.7962303,0.7441474,-0.2973941
2521,0.7962303,0.7441474,-0.2973941
2524,0.7962303,0.7444103,-0.2973941
2526,0.7962303,0.7444103,-0.2973941
2528,0.7962303,0.7441474,-0.2973941
2531,0.7962303,0.7441474,-0.2973941
2533,0.7962303,0.7444103,-0.2973941
2535,0.7969672,0.7444103,-0.2980514
2537,0.7969672,0.7444103,-0.2980514
2540,0.7972127,0.7451985,-0.2980514
2542,0.7972127,0.7451985,-0.2980514
2544,0.7979487,0.7462481,-0.2967354
2547,0.7994187,0.7480813,-0.2934199
2549,0.7994187,0.7480813,-0.2934199
2551,0.8050289,0.7556288,-0.2887141
2554,0.8050289,0.7556288,-0.2887141
2556,0.8130105,0.7661725,-0.2818553
2558,0.8130105,0.7661725,-0.2818553
2562,0.7979487,0.751474,-0.2776587
2564,0.774302,0.729005,-0.2705197
2566,0.774302,0.729005,-0.2705197
2569,0.774302,0.7298098,-0.2690692
2571,0.774302,0.7298098,-0.2690692
2573,0.7740492,0.7303458,-0.2668786
2576,0.7740492,0.7303458,-0.2668786
2578,0.7790887,0.7356848,-0.2654082
2580,0.7860898,0.7436213,-0.2654082
2583,0.7860898,0.7436213,-0.2654082
2585,0.7912999,0.7488656,-0.2654082
2587,0.7912999,0.7488656,-0.2654082
2590,0.7981939,0.7564052,-0.2646699
2592,0.7875819,0.7462481,-0.2624426
2594,0.7875819,0.7462481,-0.2624426
2597,0.7788376,0.7378095,-0.2609472
2599,0.7788376,0.7378095,-0.2609472
2601,0.782347,0.7423044,-0.2586879
2605,0.782347,0.7423044,-0.2586879
2607,0.7833468,0.7436213,-0.2579304
2609,0.7628451,0.7244276,-0.2517883
2612,0.7628451,0.7244276,-0.2517883
2614,0.7545922,0.7165515,-0.2502292
2616,0.7545922,0.7165515,-0.2502292
2619,0.7219925,0.6841414,-0.2454926
2621,0.709416,0.6717301,-0.2430897
2623,0.709416,0.6717301,-0.2430897
2625,0.6963314,0.6590852,-0.2414744
2628,0.6963314,0.6590852,-0.2414744
2630,0.6906884,0.6537194,-0.2406627
2632,0.6906884,0.6537194,-0.2406627
2635,0.7121689,0.6743467,-0.2446942
2637,0.719821,0.6815624,-0.2462884
2639,0.719821,0.6815624,-0.2462884
2642,0.7446731,0.7055438,-0.25101
2644,0.7446731,0.7055438,-0.25101
2647,0.7538139,0.7143636,-0.2533378
2650,0.7538139,0.7143636,-0.2533378
2652,0.7628451,0.7222635,-0.2586879
2654,0.7765731,0.7340872,-0.2654082
2657,0.7765731,0.7340872,-0.2654082
2659,0.7840959,0.7412493,-0.2676108
2661,0.7840959,0.7412493,-0.2676108
2664,0.7905577,0.7472962,-0.2697954
2666,0.7991739,0.7545922,-0.2748253
2668,0.7991739,0.7545922,-0.2748253
2671,0.8021067,0.7564052,-0.276953
2673,0.8021067,0.7564052,-0.276953
2675,0.8042993,0.7582139,-0.2790645
2678,0.8042993,0.7582139,-0.2790645
2680,0.8089085,0.760533,-0.2866737
2682,0.8089085,0.7592455,-0.2900664
2685,0.8089085,0.7592455,-0.2900664
2688,0.8086666,0.7587299,-0.2920831
2690,0.8086666,0.7579558,-0.2947506
2693,0.8081825,0.7566639,-0.2960753
2695,0.8076981,0.7556288,-0.2973941
2697,0.8076981,0.7556288,-0.2973941
2700,0.8062432,0.7530347,-0.3006659
2702,0.8062432,0.7530347,-0.3006659
2704,0.8050289,0.7512136,-0.3019647
2707,0.8050289,0.7512136,-0.3019647
2709,0.8042993,0.7501709,-0.3032579
2711,0.8028382,0.7483428,-0.3039024
2713,0.8028382,0.7483428,-0.3039024
2716,0.8023506,0.7478197,-0.3045456
2718,0.8023506,0.7478197,-0.3045456
2720,0.8028382,0.7483428,-0.3051875
2723,0.8028382,0.7478197,-0.3051875
2725,0.8028382,0.7478197,-0.3051875
2727,0.8025945,0.7478197,-0.3051875
2731,0.8025945,0.7478197,-0.3051875
2733,0.800886,0.7462481,-0.3051875
2735,0.800886,0.7462481,-0.3051875
2738,0.7994187,0.7449358,-0.3045456
2740,0.798684,0.7441474,-0.3045456
2742,0.798684,0.7441474,-0.3045456
2745,0.7981939,0.7441474,-0.3039024
2747,0.7981939,0.7441474,-0.3039024
2749,0.7981939,0.7441474,-0.3032579
2752,0.7981939,0.7441474,-0.3032579
2754,0.7991739,0.7457234,-0.3032579
2756,0.7999081,0.7480813,-0.2987072
2759,0.7999081,0.7480813,-0.2987072
2761,0.7999081,0.7480813,-0.2987072
2763,0.7999081,0.7480813,-0.2987072
2766,0.7999081,0.7480813,-0.2987072
2768,0.7972127,0.7459858,-0.2967354
2770,0.7972127,0.7459858,-0.2967354
2774,0.7952467,0.7441474,-0.2960753
2776,0.7952467,0.7441474,-0.2960753
2778,0.7954926,0.7451985,-0.2927522
2781,0.7957386,0.7459858,-0.2900664
2783,0.7959845,0.7470343,-0.2873554
2785,0.7969672,0.7486043,-0.2859903
2788,0.7969672,0.7486043,-0.2859903
2790,0.7991739,0.7522548,-0.2818553
2792,0.7991739,0.7522548,-0.2818553
2794,0.8003972,0.7538139,-0.2804634
2797,0.8013745,0.7553698,-0.2797648
2799,0.8013745,0.7553698,-0.2797648
2801,0.8013745,0.7551107,-0.2783625
2804,0.8013745,0.7551107,-0.2783625
2806,0.800886,0.7556288,-0.2762456
2808,0.800886,0.7556288,-0.2762456
2811,0.8038125,0.7587299,-0.2755364
2813,0.8081825,0.7636142,-0.2741124
2816,0.8081825,0.7636142,-0.2741124
2819,0.8110828,0.7674484,-0.2712421
2821,0.8110828,0.7674484,-0.2712421
2823,0.8134917,0.7710097,-0.2697954
2826,0.8134917,0.7710097,-0.2697954
2828,0.8201992,0.7793398,-0.2654082
2830,0.8223435,0.7818466,-0.2631872
2833,0.8223435,0.7818466,-0.2631872
2835,0.8204377,0.7805943,-0.2624426
2837,0.8204377,0.7805943,-0.2624426
2840,0.8197219,0.7795909,-0.2624426
2842,0.8182884,0.7780834,-0.2631872
2844,0.8182884,0.7780834,-0.2631872
2847,0.8163731,0.7763211,-0.2639296
2849,0.8163731,0.7763211,-0.2639296
2851,0.8211529,0.7815963,-0.261696
2854,0.8211529,0.7815963,-0.261696
2856,0.8280347,0.7893192,-0.2601963
2859,0.8292154,0.7903101,-0.2609472
2862,0.8292154,0.7903101,-0.2609472
2864,0.8306301,0.7920414,-0.261696
2866,0.8306301,0.7920414,-0.261696
2869,0.8341562,0.7957386,-0.261696
2871,0.8393012,0.800886,-0.2601963
2873,0.8393012,0.800886,-0.2601963
2876,0.8367326,0.7981939,-0.2639296
2878,0.8367326,0.7981939,-0.2639296
2880,0.8336869,0.7937689,-0.2676108
2882,0.8336869,0.7937689,-0.2676108
2885,0.8348597,0.7952467,-0.2668786
2887,0.8355626,0.7959845,-0.2661444
2889,0.8355626,0.7959845,-0.2661444
2892,0.8325126,0.7927822,-0.2676108
2894,0.8325126,0.7927822,-0.2676108
2896,0.8294513,0.7890712,-0.2690692
2899,0.8266156,0.7858408,-0.2712421
2902,0.8266156,0.7858408,-0.2712421
2904,0.826142,0.7853427,-0.2705197
2907,0.826142,0.7853427,-0.2705197
2909,0.8296872,0.7903101,-0.268341
2911,0.8296872,0.7903101,-0.268341
2914,0.8334522,0.7945082,-0.2661444
2916,0.8199606,0.7820969,-0.2609472
2918,0.8199606,0.7820969,-0.2609472
2921,0.8062432,0.7689767,-0.2586879
2923,0.8062432,0.7689767,-0.2586879
2925,0.7785863,0.7420408,-0.2533378
2928,0.7785863,0.7420408,-0.2533378
2930,0.7648944,0.729005,-0.25101
2932,0.7615615,0.7268545,-0.2470816
2935,0.7615615,0.7268545,-0.2470816
2937,0.7679582,0.7338206,-0.2454926
2939,0.7679582,0.7338206,-0.2454926
2942,0.7905577,0.7571809,-0.2454926
2945,0.8052719,0.7720242,-0.2454926
2947,0.8052719,0.7720242,-0.2454926
2950,0.82377,0.7903101,-0.2478722
2952,0.82377,0.7903101,-0.2478722
2954,0.8287433,0.7954926,-0.2486604
2957,0.8287433,0.7954926,-0.2486604
2959,0.8334522,0.7996635,-0.2502292
2961,0.8453411,0.8130105,-0.2470816
2964,0.8453411,0.8130105,-0.2470816
2966,0.8388348,0.8072135,-0.2422834
2968,0.8388348,0.8072135,-0.2422834
2970,0.8294513,0.798684,-0.2390311
2973,0.8218675,0.7915472,-0.2365626
2975,0.8218675,0.7915472,-0.2365626
2977,0.7942618,0.7654059,-0.2289973
2980,0.7942618,0.7654059,-0.2289973
2982,0.7838463,0.7556288,-0.2255535
2984,0.7838463,0.7556288,-0.2255535
2988,0.7449358,0.7184606,-0.2167048
2990,0.7300779,0.7044336,-0.2130625
2992,0.7300779,0.7044336,-0.2130625
2995,0.7149112,0.6909717,-0.2074791
2997,0.7149112,0.6909717,-0.2074791
2999,0.7088641,0.6855699,-0.2055842
3002,0.711069,0.6878495,-0.2055842
3004,0.711069,0.6878495,-0.2055842
3006,0.7113441,0.688134,-0.2065338
3009,0.7113441,0.688134,-0.2065338
3011,0.707759,0.6852845,-0.2027088
3013,0.707759,0.6852845,-0.2027088
3016,0.7058211,0.6838553,-0.2017412
3018,0.7019292,0.6812752,-0.1958353
3020,0.7019292,0.6812752,-0.1958353
3023,0.7005339,0.6795497,-0.1958353
3025,0.7005339,0.6795497,-0.1958353
3027,0.690405,0.66998,-0.1948336
3031,0.690405,0.66998,-0.1948336
3033,0.6861406,0.6661724,-0.1938267
3035,0.6847132,0.6644077,-0.191797
3038,0.6847132,0.6644077,-0.191797
3040,0.680988,0.661456,-0.1907741
3042,0.680988,0.661456,-0.1907741
3045,0.6786853,0.6590852,-0.1907741
3047,0.6746368,0.6555129,-0.1897456
3049,0.6746368,0.6555129,-0.1897456
3052,0.6652907,0.6464956,-0.1845175
3054,0.6652907,0.6464956,-0.1845175
3056,0.6507192,0.6330382,-0.1802258
3058,0.6507192,0.6330382,-0.1802258
3061,0.6575991,0.6394964,-0.1823843
3063,0.6667597,0.6483091,-0.1845175
3065,0.6667597,0.6483091,-0.1845175
3068,0.6769533,0.6578966,-0.1876719
3070,0.6769533,0.6578966,-0.1876719
3073,0.6915378,0.6714388,-0.1907741
3076,0.6895542,0.6693957,-0.1907741
3078,0.6895542,0.6693957,-0.1907741
3080,0.6869956,0.6661724,-0.1907741
3083,0.6869956,0.6661724,-0.1907741
3085,0.6996954,0.6781085,-0.1948336
3087,0.6996954,0.6781085,-0.1948336
3090,0.7184606,0.6960504,-0.1988102
3092,0.7149112,0.6921035,-0.2007689
3094,0.7149112,0.6921035,-0.2007689
3097,0.7102429,0.6867107,-0.2017412
3099,0.7102429,0.6867107,-0.2017412
3101,0.7069291,0.6838553,-0.2007689
3104,0.7069291,0.6838553,-0.2007689
3106,0.7016503,0.6795497,-0.1988102
3108,0.7008132,0.6783969,-0.1978235
3111,0.7008132,0.6783969,-0.1978235
3113,0.6991359,0.6766641,-0.1968319
3116,0.6991359,0.6766641,-0.1968319
3119,0.6943616,0.6723125,-0.1968319
3121,0.688134,0.6652907,-0.1978235
3123,0.688134,0.6652907,-0.1978235
3126,0.6869956,0.6641131,-0.1978235
3128,0.6869956,0.6641131,-0.1978235
3130,0.6849989,0.6617518,-0.1958353
3133,0.6849989,0.6617518,-0.1958353
3135,0.6749268,0.651921,-0.1948336
3137,0.6599753,0.6373509,-0.1928145
3140,0.6599753,0.6373509,-0.1928145
3142,0.6561096,0.6330382,-0.1938267
3144,0.6561096,0.6330382,-0.1938267
3146,0.6528208,0.6293179,-0.1958353
3149,0.6498165,0.6265134,-0.1968319
3151,0.6498165,0.6265134,-0.1968319
3153,0.6498165,0.6258884,-0.1968319
3156,0.6498165,0.6258884,-0.1968319
3159,0.6434618,0.6196041,-0.1968319
3161,0.6434618,0.6196041,-0.1968319
3164,0.6388841,0.6148488,-0.1968319
3166,0.6274496,0.6029587,-0.1968319
3168,0.6274496,0.6029587,-0.1968319
3171,0.6208661,0.5964329,-0.1968319
3173,0.6208661,0.5964329,-0.1968319
3175,0.6113381,0.5865081,-0.1958353
3178,0.607807,0.5831623,-0.1958353
3180,0.607807,0.5831623,-0.1958353
3182,0.6045791,0.5797972,-0.1968319
3185,0.6045791,0.5797972,-0.1968319
3187,0.6167554,0.5911604,-0.1988102
3189,0.6167554,0.5911604,-0.1988102
3192,0.6205508,0.5947903,-0.1978235
3194,0.6173896,0.5911604,-0.1988102
3196,0.6173896,0.5911604,-0.1988102
3200,0.6161205,0.5898349,-0.1988102
3202,0.6161205,0.5898349,-0.1988102
3204,0.6122975,0.5848376,-0.2027088
3207,0.6122975,0.5848376,-0.2027088
3209,0.6106976,0.5828267,-0.2027088
3211,0.6180231,0.5878411,-0.2093567
3214,0.6180231,0.5878411,-0.2093567
3216,0.6199199,0.5901666,-0.2112177
3218,0.6199199,0.5901666,-0.2112177
3221,0.6321102,0.6003569,-0.2167048
3223,0.6361217,0.6039315,-0.2185032
3225,0.6361217,0.6039315,-0.2185032
3228,0.6404136,0.6074851,-0.2229358
3230,0.6404136,0.6074851,-0.2229358
3232,0.6419396,0.608772,-0.2238118
3234,0.6419396,0.608772,-0.2238118
3237,0.6832828,0.6510199,-0.2246844
3239,0.6988559,0.667053,-0.2246844
3241,0.6988559,0.667053,-0.2246844
3245,0.7209076,0.6898379,-0.2246844
3247,0.7209076,0.6898379,-0.2246844
3249,0.7292733,0.6985759,-0.2246844
3252,0.7478197,0.717643,-0.2246844
3254,0.7478197,0.717643,-0.2246844
3256,0.776825,0.7472962,-0.2246844
3259,0.776825,0.7472962,-0.2246844
3261,0.7810954,0.7519946,-0.2246844
3263,0.7810954,0.7519946,-0.2246844
3266,0.7935224,0.7648944,-0.2229358
3268,0.800886,0.7727842,-0.2229358
3270,0.800886,0.7727842,-0.2229358
3273,0.8132511,0.7853427,-0.2229358
3275,0.8132511,0.7853427,-0.2229358
3277,0.8182884,0.7908052,-0.2238118
3280,0.8182884,0.7908052,-0.2238118
3282,0.8206762,0.7932757,-0.2220564
3284,0.8187665,0.7920414,-0.2220564
3288,0.8187665,0.7920414,-0.2220564
3290,0.8180492,0.7912999,-0.2211734
3292,0.8180492,0.7912999,-0.2211734
3295,0.8244823,0.7981939,-0.2193969
3297,0.8273254,0.8016186,-0.2193969
3299,0.8273254,0.8016186,-0.2193969
3302,0.8462666,0.8190054,-0.2255535
3304,0.8462666,0.8190054,-0.2255535
3306,0.854092,0.8266156,-0.2272819
3309,0.854092,0.8266156,-0.2272819
3311,0.8620735,0.8341562,-0.2289973
3313,0.8656976,0.8374339,-0.2306999
3316,0.8656976,0.8374339,-0.2306999
3318,0.873573,0.844183,-0.234068
3320,0.873573,0.844183,-0.234068
3322,0.8860281,0.85638,-0.2365626
3325,0.886911,0.8572935,-0.2373883
3328,0.886911,0.8572935,-0.2373883
3330,0.8884541,0.858434,-0.2390311
3333,0.8884541,0.858434,-0.2390311
3335,0.8880135,0.857978,-0.2382111
3337,0.8880135,0.857978,-0.2382111
3340,0.8886743,0.8586619,-0.2382111
3342,0.8882338,0.858206,-0.2382111
3344,0.8882338,0.858206,-0.2382111
3347,0.8888945,0.8588898,-0.2373883
3349,0.8888945,0.8588898,-0.2373883
3351,0.8858072,0.8554656,-0.2373883
3354,0.8833739,0.8531751,-0.2365626
3356,0.8833739,0.8531751,-0.2365626
3358,0.8627541,0.8332174,-0.23239
3361,0.8627541,0.8332174,-0.23239
3363,0.8474219,0.8180492,-0.2289973
3365,0.8474219,0.8180492,-0.2289973
3368,0.825194,0.7959845,-0.2264194
3371,0.806971,0.7780834,-0.2229358
3373,0.806971,0.7780834,-0.2229358
3376,0.7720242,0.7433581,-0.220287
3378,0.7720242,0.7433581,-0.220287
3380,0.7556288,0.7265852,-0.220287
3383,0.7556288,0.7265852,-0.220287
3385,0.741777,0.7124436,-0.220287
3387,0.6994157,0.6688108,-0.220287
3390,0.6994157,0.6688108,-0.220287
3392,0.6952065,0.6632286,-0.2229358
3394,0.6952065,0.6632286,-0.2229358
3397,0.6915378,0.6584912,-0.2264194
3399,0.6755064,0.6407191,-0.2281412
3401,0.6755064,0.6407191,-0.2281412
3403,0.6644077,0.6296288,-0.2255535
3406,0.6644077,0.6296288,-0.2255535
3408,0.6561096,0.6205508,-0.2264194
3410,0.6561096,0.6205508,-0.2264194
3414,0.6561096,0.6196041,-0.2281412
3416,0.6555129,0.6183397,-0.2289973
3418,0.6555129,0.6183397,-0.2289973
3421,0.6584912,0.6224399,-0.2264194
3423,0.6584912,0.6224399,-0.2264194
3425,0.6495153,0.614212,-0.2229358
3428,0.6339648,0.6000308,-0.2176059
3430,0.6339648,0.6000308,-0.2176059
3432,0.6355062,0.6016592,-0.2167048
3435,0.6355062,0.6016592,-0.2167048
3437,0.6348901,0.6016592,-0.2148914
3439,0.6348901,0.6016592,-0.2148914
3442,0.6255757,0.5914913,-0.2139789
3444,0.6167554,0.5828267,-0.2139789
3446,0.6167554,0.5828267,-0.2139789
3449,0.6129363,0.5787839,-0.2130625
3451,0.6129363,0.5787839,-0.2130625
3453,0.615167,0.5811456,-0.2130625
3457,0.6132555,0.5804718,-0.2102893
3459,0.6132555,0.5804718,-0.2102893
3461,0.6103771,0.5784457,-0.20842
3464,0.6103771,0.5784457,-0.20842
3466,0.6122975,0.5808088,-0.20842
3468,0.6122975,0.5808088,-0.20842
3471,0.615167,0.5841681,-0.2074791
3473,0.6202354,0.589503,-0.2065338
3475,0.6202354,0.589503,-0.2065338
3478,0.6221254,0.5911604,-0.2074791
3480,0.6221254,0.5911604,-0.2074791
3482,0.6258884,0.5957764,-0.2065338
3485,0.6258884,0.5957764,-0.2065338
3487,0.6283845,0.5983981,-0.2055842
3489,0.6428534,0.6132555,-0.2055842
3491,0.6428534,0.6132555,-0.2055842
3494,0.6531205,0.6230683,-0.2074791
3496,0.6531205,0.6230683,-0.2074791
3499,0.6549156,0.6258884,-0.2055842
3502,0.6495153,0.6205508,-0.2046302
3504,0.6495153,0.6205508,-0.2046302
3506,0.652221,0.6236961,-0.2036718
3509,0.652221,0.6236961,-0.2036718
3511,0.6581939,0.63025,-0.2027088
3513,0.6581939,0.63025,-0.2027088
3516,0.6746368,0.646193,-0.2055842
3518,0.6832828,0.6546168,-0.2074791
3520,0.6832828,0.6546168,-0.2074791
3523,0.6901216,0.661456,-0.2074791
3525,0.6901216,0.661456,-0.2074791
3527,0.6985759,0.6693957,-0.2093567
3530,0.7010924,0.6720214,-0.2102893
3532,0.7010924,0.6720214,-0.2102893
3534,0.7149112,0.6849989,-0.2139789
3537,0.7149112,0.6849989,-0.2139789
3539,0.7195491,0.6895542,-0.2158
3542,0.7195491,0.6895542,-0.2158
3545,0.721179,0.6909717,-0.2158
3547,0.7214502,0.6915378,-0.2158
3549,0.7214502,0.6915378,-0.2158
3552,0.7607903,0.7295417,-0.2238118
3554,0.7607903,0.7295417,-0.2238118
3556,0.7753122,0.7438844,-0.2272819
3559,0.7753122,0.7438844,-0.2272819
3561,0.8001527,0.7682129,-0.2298502
3563,0.8091505,0.7778319,-0.2315465
3566,0.8091505,0.7778319,-0.2315465
3568,0.8108415,0.7795909,-0.2298502
3570,0.8108415,0.7795909,-0.2298502
3573,0.8120472,0.7810954,-0.2298502
3575,0.798929,0.7677034,-0.2281412
3577,0.798929,0.7677034,-0.2281412
3579,0.7795909,0.7486043,-0.2272819
3582,0.7795909,0.7486043,-0.2272819
3585,0.7760689,0.745461,-0.2255535
3587,0.7760689,0.745461,-0.2255535
3590,0.7707559,0.7407211,-0.2246844
3592,0.7755645,0.7457234,-0.2246844
3594,0.7755645,0.7457234,-0.2246844
3597,0.7828471,0.7527748,-0.2264194
3599,0.7828471,0.7527748,-0.2264194
3601,0.7840959,0.7543329,-0.2264194
3604,0.7853427,0.7561465,-0.2238118
3606,0.7853427,0.7561465,-0.2238118
3608,0.7890712,0.7597608,-0.2238118
3611,0.7890712,0.7597608,-0.2238118
3613,0.7942618,0.7648944,-0.2246844
3615,0.7942618,0.7648944,-0.2246844
3618,0.7818466,0.7522548,-0.2238118
3620,0.7625886,0.733287,-0.2211734
3622,0.7625886,0.733287,-0.2211734
3625,0.7656615,0.7364823,-0.2220564
3628,0.7656615,0.7364823,-0.2220564
3630,0.7689767,0.7399282,-0.2229358
3633,0.7602757,0.7314168,-0.2220564
3635,0.7602757,0.7314168,-0.2220564
3637,0.7530347,0.7238871,-0.2220564
3640,0.7530347,0.7238871,-0.2220564
3642,0.7512136,0.7219925,-0.2211734
3644,0.7512136,0.7219925,-0.2211734
3647,0.7569224,0.7273927,-0.2229358
3649,0.7569224,0.7273927,-0.2229358
3651,0.7569224,0.7273927,-0.2229358
3654,0.7470343,0.7173703,-0.2220564
3656,0.7470343,0.7173703,-0.2220564
3658,0.7470343,0.7173703,-0.2220564
3661,0.7470343,0.7173703,-0.2220564
3663,0.7354187,0.7060983,-0.2193969
3665,0.7311491,0.7024865,-0.2193969
3667,0.7311491,0.7024865,-0.2193969
3671,0.7356848,0.7072059,-0.220287
3673,0.7356848,0.7072059,-0.220287
3675,0.7451985,0.7168246,-0.2193969
3678,0.7501709,0.7217214,-0.2193969
3680,0.7501709,0.7217214,-0.2193969
3682,0.7412493,0.7135413,-0.2158
3685,0.7412493,0.7135413,-0.2158
3687,0.7306137,0.7035998,-0.2139789
3689,0.7306137,0.7035998,-0.2139789
3692,0.7316842,0.7044336,-0.2130625
3694,0.7393991,0.7121689,-0.2148914
3696,0.7393991,0.7121689,-0.2148914
3699,0.7571809,0.7295417,-0.2185032
3701,0.7571809,0.7295417,-0.2185032
3703,0.7669383,0.7383398,-0.2193969
3706,0.7845948,0.7553698,-0.2229358
3708,0.7845948,0.7553698,-0.2229358
3710,0.7925354,0.7631016,-0.2246844
3714,0.7925354,0.7631016,-0.2246844
3716,0.8025945,0.7730374,-0.2264194
3718,0.8025945,0.7730374,-0.2264194
3721,0.8052719,0.7758168,-0.2272819
3723,0.8137322,0.7838463,-0.2281412
3725,0.8137322,0.7838463,-0.2281412
3728,0.8180492,0.7883269,-0.2281412
3730,0.8180492,0.7883269,-0.2281412
3732,0.8213912,0.7917944,-0.2289973
3735,0.8270888,0.7977034,-0.2281412
3737,0.8270888,0.7977034,-0.2281412
3739,0.8289794,0.7996635,-0.2289973
3742,0.8318071,0.8028382,-0.2272819
3744,0.8339216,0.8050289,-0.2272819
3746,0.8339216,0.8050289,-0.2272819
3749,0.8355626,0.8072135,-0.2264194
3751,0.8362648,0.8084246,-0.2255535
3753,0.8362648,0.8084246,-0.2255535
3756,0.8364988,0.8086666,-0.2264194
3759,0.8364988,0.8086666,-0.2264194
3761,0.839068,0.811324,-0.2255535
3763,0.839068,0.811324,-0.2255535
3766,0.8397673,0.8118062,-0.2246844
3768,0.858434,0.8306301,-0.2264194
3770,0.858434,0.8306301,-0.2264194
3773,0.8650193,0.8376676,-0.2264194
3775,0.8650193,0.8376676,-0.2264194
3777,0.8561515,0.8289794,-0.2220564
3780,0.8527163,0.8256681,-0.2211734
3782,0.8527163,0.8256681,-0.2211734
3784,0.8588898,0.8318071,-0.2220564
3787,0.8588898,0.8318071,-0.2220564
3789,0.867955,0.8409316,-0.2211734
3791,0.867955,0.8409316,-0.2211734
3794,0.8800449,0.8531751,-0.2220564
3796,0.8844808,0.8575217,-0.2229358
3799,0.8844808,0.8575217,-0.2229358
3802,0.8764802,0.8497278,-0.2220564
3804,0.8764802,0.8497278,-0.2220564
3806,0.8641139,0.8372003,-0.2193969
3809,0.8522572,0.8256681,-0.2176059
3811,0.8522572,0.8256681,-0.2176059
3813,0.8336869,0.8074558,-0.2139789
3816,0.8336869,0.8074558,-0.2139789
3818,0.8275619,0.8016186,-0.2130625
3820,0.8275619,0.8016186,-0.2130625
3823,0.8175707,0.7920414,-0.2112177
3825,0.8383681,0.8122882,-0.2121421
3827,0.8383681,0.8122882,-0.2121421
3830,0.8686311,0.8425589,-0.2130625
3832,0.8686311,0.8425589,-0.2130625
3834,0.8575217,0.8313365,-0.2130625
3837,0.8575217,0.8313365,-0.2130625
3840,0.848345,0.8218675,-0.2130625
3842,0.8266156,0.7996635,-0.2139789
3844,0.8266156,0.7996635,-0.2139789
3847,0.8151737,0.7875819,-0.2148914
3849,0.8151737,0.7875819,-0.2148914
3851,0.8045425,0.7763211,-0.2176059
3854,0.8030819,0.7745547,-0.2193969
3856,0.8030819,0.7745547,-0.2193969
3858,0.8079404,0.7790887,-0.2220564
3861,0.8079404,0.7790887,-0.2220564
3863,0.812529,0.7833468,-0.2229358
3865,0.812529,0.7833468,-0.2229358
3868,0.8254311,0.7957386,-0.2272819
3870,0.8329825,0.8025945,-0.2298502
3872,0.8329825,0.8025945,-0.2298502
3875,0.8339216,0.8030819,-0.23239
3877,0.8339216,0.8030819,-0.23239
3879,0.8294513,0.798929,-0.2315465
3883,0.8364988,0.8052719,-0.2349025
3885,0.8364988,0.8052719,-0.2349025
3887,0.845804,0.8137322,-0.2390311
3890,0.845804,0.8137322,-0.2390311
3892,0.8476528,0.8151737,-0.2398483
3894,0.8476528,0.8151737,-0.2398483
3897,0.8499581,0.8173313,-0.2406627
3899,0.8485757,0.8158936,-0.2422834
3901,0.8485757,0.8158936,-0.2422834
3904,0.8460353,0.812529,-0.2438933
3906,0.8460353,0.812529,-0.2438933
3908,0.8469599,0.8127698,-0.2454926
3911,0.8478836,0.8132511,-0.2478722
3913,0.8478836,0.8132511,-0.2478722
3915,0.8418618,0.8076981,-0.2462884
3918,0.8418618,0.8076981,-0.2462884
3920,0.8325126,0.7991739,-0.2430897
3922,0.8325126,0.7991739,-0.2430897
3926,0.8355626,0.8018627,-0.2430897
3928,0.8374339,0.8047857,-0.2422834
3930,0.8374339,0.8047857,-0.2422834
3932,0.8400003,0.8072135,-0.2422834
3935,0.8400003,0.8072135,-0.2422834
3937,0.840466,0.8076981,-0.2422834
3939,0.840466,0.8076981,-0.2422834
3942,0.8497278,0.8163731,-0.2438933
3944,0.8566085,0.8235324,-0.2446942
3946,0.8566085,0.8235324,-0.2446942
3949,0.8711056,0.8379012,-0.2462884
3951,0.8711056,0.8379012,-0.2462884
3953,0.8784871,0.8451096,-0.2478722
3956,0.8937243,0.8604831,-0.2486604
3958,0.8937243,0.8604831,-0.2486604
3960,0.901572,0.8681804,-0.249446
3963,0.901572,0.8681804,-0.249446
3965,0.9035233,0.8706562,-0.2486604
3968,0.9035233,0.8706562,-0.2486604
3971,0.899834,0.8672784,-0.2478722
3973,0.8967844,0.8645667,-0.2470816
3975,0.8967844,0.8645667,-0.2470816
3978,0.8572935,0.825194,-0.2414744
3980,0.8572935,0.825194,-0.2414744
3982,0.8420942,0.8103587,-0.2382111
3985,0.8339216,0.8023506,-0.2373883
3987,0.8339216,0.8023506,-0.2373883
3989,0.829923,0.798684,-0.2373883
3992,0.829923,0.798684,-0.2373883
3994,0.8400003,0.8089085,-0.2373883
3996,0.8400003,0.8089085,-0.2373883
3999,0.842791,0.8118062,-0.2365626
4001,0.8166127,0.7863387,-0.23239
4003,0.8166127,0.7863387,-0.23239
4006,0.8062432,0.7760689,-0.2315465
4008,0.8062432,0.7760689,-0.2315465
4011,0.7813459,0.7519946,-0.2272819
4013,0.7813459,0.7519946,-0.2272819
4016,0.7712635,0.7420408,-0.2255535
4018,0.7818466,0.7530347,-0.2255535
4020,0.7818466,0.7530347,-0.2255535
4023,0.7848442,0.7564052,-0.2264194
4025,0.7848442,0.7564052,-0.2264194
4027,0.8013745,0.7727842,-0.2272819
4030,0.806971,0.7783349,-0.2281412
4032,0.806971,0.7783349,-0.2281412
4034,0.8161334,0.7875819,-0.2298502
4037,0.8161334,0.7875819,-0.2298502
4039,0.8285072,0.7996635,-0.2315465
4041,0.8285072,0.7996635,-0.2315465
4044,0.8397673,0.8101172,-0.234068
4046,0.8434873,0.8137322,-0.235734
4048,0.8434873,0.8137322,-0.235734
4051,0.847191,0.8170919,-0.235734
4054,0.847191,0.8170919,-0.235734
4056,0.8508785,0.8213912,-0.2365626
4059,0.8550079,0.8244823,-0.2373883
4061,0.8550079,0.8244823,-0.2373883
4063,0.8600281,0.8289794,-0.2390311
4066,0.8600281,0.8289794,-0.2390311
4068,0.8629809,0.8320423,-0.2390311
4070,0.8629809,0.8320423,-0.2390311
4073,0.8672784,0.8362648,-0.2406627
4075,0.8688563,0.8379012,-0.2406627
4077,0.8688563,0.8379012,-0.2406627
4080,0.8711056,0.8395343,-0.2422834
4082,0.8711056,0.8395343,-0.2422834
4084,0.8731248,0.8416294,-0.2430897
4087,0.8746923,0.8430232,-0.2430897
4089,0.8753631,0.8437192,-0.2438933
4091,0.873349,0.8418618,-0.2454926
4094,0.873349,0.8418618,-0.2454926
4097,0.8702065,0.8381346,-0.2446942
4099,0.8702065,0.8381346,-0.2446942
4101,0.8704314,0.8376676,-0.2470816
4104,0.8702065,0.8374339,-0.2462884
4106,0.8702065,0.8374339,-0.2462884
4108,0.8767033,0.8437192,-0.2486604
4111,0.8767033,0.8437192,-0.2486604
4113,0.8820438,0.8485757,-0.249446
4115,0.8820438,0.8485757,-0.249446
4118,0.8902143,0.8568369,-0.2517883
4120,0.8935054,0.8600281,-0.2525642
4122,0.8935054,0.8600281,-0.2525642
4125,0.9026566,0.8681804,-0.2548778
4127,0.9026566,0.8681804,-0.2548778
4129,0.9076288,0.8731248,-0.2548778
4132,0.9159984,0.8809339,-0.2571706
4134,0.9159984,0.8809339,-0.2571706
4136,0.9191971,0.884702,-0.2579304
4140,0.9191971,0.884702,-0.2579304
4142,0.9242921,0.8888945,-0.2601963
4144,0.9242921,0.8888945,-0.2601963
4147,0.9259842,0.8904341,-0.261696
4149,0.9272513,0.8919711,-0.261696
4151,0.9272513,0.8919711,-0.261696
4154,0.9314623,0.8956926,-0.2624426
4156,0.9314623,0.8956926,-0.2624426
4158,0.9331415,0.8972207,-0.2624426
4161,0.9364907,0.9002688,-0.2639296
4163,0.9364907,0.9002688,-0.2639296
4165,0.9373261,0.9011378,-0.2631872
4168,0.9373261,0.9011378,-0.2631872
4170,0.9387863,0.9024397,-0.2639296
4172,0.9387863,0.9024397,-0.2639296
4175,0.9379522,0.901572,-0.2646699
4177,0.9366996,0.9007034,-0.2646699
4179,0.9366996,0.9007034,-0.2646699
4183,0.9362817,0.9000514,-0.2654082
4185,0.9362817,0.9000514,-0.2654082
4187,0.9373261,0.9007034,-0.2661444
4189,0.9373261,0.9007034,-0.2646699
4192,0.9373261,0.9007034,-0.2646699
4194,0.9375348,0.9011378,-0.2646699
4196,0.9375348,0.9011378,-0.2646699
4199,0.9371173,0.9011378,-0.2639296
4201,0.9371173,0.9011378,-0.2639296
4203,0.9369085,0.9004862,-0.2639296
4206,0.9379522,0.901789,-0.2646699
4208,0.9379522,0.901789,-0.2646699
4210,0.9389946,0.9026566,-0.2646699
4213,0.9389946,0.9026566,-0.2646699
4215,0.9404523,0.9041728,-0.2639296
4217,0.9404523,0.9041728,-0.2639296
4220,0.9406604,0.9043891,-0.2639296
4222,0.9412843,0.9043891,-0.2654082
4225,0.9412843,0.9043891,-0.2654082
4228,0.9412843,0.9046055,-0.2654082
4230,0.9412843,0.9046055,-0.2654082
4232,0.9412843,0.9041728,-0.2661444
4235,0.9412843,0.9046055,-0.2661444
4237,0.9412843,0.9046055,-0.2661444
4239,0.9439828,0.9071976,-0.2661444
4242,0.9439828,0.9071976,-0.2661444
4244,0.9458466,0.9091367,-0.2668786
4246,0.9458466,0.9091367,-0.2668786
4249,0.9421154,0.9061184,-0.2631872
4251,0.9381608,0.9026566,-0.261696
4253,0.9381608,0.9026566,-0.261696
4256,0.9364907,0.902006,-0.2586879
4258,0.9364907,0.902006,-0.2586879
4260,0.9379522,0.90309,-0.2579304
4263,0.9392031,0.9043891,-0.2586879
4265,0.9392031,0.9043891,-0.2586879
4268,0.9408684,0.9063343,-0.2586879
4271,0.9408684,0.9063343,-0.2586879
4273,0.9412843,0.9069818,-0.2586879
4275,0.9412843,0.9069818,-0.2586879
4277,0.9329317,0.8985283,-0.2579304
4280,0.9198356,0.8855863,-0.2556444
4282,0.9198356,0.8855863,-0.2556444
4284,0.9211111,0.8875727,-0.254109
4287,0.9211111,0.8875727,-0.254109
4289,0.9223848,0.8893346,-0.2533378
4291,0.9223848,0.8893346,-0.2533378
4294,0.9238687,0.8908735,-0.2525642
4296,0.9255615,0.8924097,-0.2525642
4298,0.9255615,0.8924097,-0.2525642
4301,0.9291486,0.8963478,-0.254109
4303,0.9291486,0.8963478,-0.254109
4305,0.9337703,0.9013549,-0.254109
4308,0.9366996,0.9039564,-0.254109
4311,0.9366996,0.9039564,-0.254109
4313,0.9402443,0.9074132,-0.254109
4316,0.9402443,0.9074132,-0.254109
4318,0.9354453,0.9037398,-0.2517883
4320,0.9354453,0.9037398,-0.2517883
4323,0.9289381,0.8974388,-0.2478722
4325,0.9228091,0.8919711,-0.2454926
4327,0.9228091,0.8919711,-0.2454926
4330,0.9138597,0.8829308,-0.2438933
4332,0.9138597,0.8829308,-0.2438933
4334,0.9142877,0.8833739,-0.2446942
4337,0.9147157,0.8831524,-0.2462884
4339,0.9147157,0.8831524,-0.2462884
4341,0.9217481,0.8897746,-0.249446
4344,0.9217481,0.8897746,-0.249446
4346,0.9318824,0.899399,-0.25101
4348,0.9318824,0.899399,-0.25101
4352,0.9283059,0.8963478,-0.249446
4354,0.9228091,0.8913127,-0.2462884
4356,0.9228091,0.8913127,-0.2462884
4359,0.9234449,0.8919711,-0.2470816
4361,0.9234449,0.8919711,-0.2470816
4363,0.9238687,0.8919711,-0.2478722
4365,0.9257729,0.8941622,-0.249446
4368,0.9257729,0.8941622,-0.249446
4370,0.9276733,0.8954742,-0.249446
4372,0.9276733,0.8954742,-0.249446
4375,0.9312522,0.8989637,-0.25101
4377,0.9312522,0.8989637,-0.25101
4379,0.9329317,0.9004862,-0.25101
4382,0.9323022,0.9002688,-0.2502292
4384,0.9323022,0.9002688,-0.2502292
4386,0.9306217,0.8987461,-0.2486604
4389,0.9306217,0.8987461,-0.2486604
4391,0.9295698,0.8976567,-0.25101
4393,0.9295698,0.8976567,-0.25101
4397,0.9299906,0.8974388,-0.2533378
4399,0.930201,0.8965662,-0.2579304
4401,0.930201,0.8965662,-0.2579304
4404,0.930201,0.8956926,-0.2609472
4406,0.930201,0.8956926,-0.2609472
4408,0.9304113,0.8950371,-0.2624426
4411,0.9255615,0.8902143,-0.2639296
4413,0.9255615,0.8902143,-0.2639296
4415,0.9242921,0.8880135,-0.2646699
4418,0.9242921,0.8880135,-0.2646699
4420,0.9312522,0.8941622,-0.2697954
4422,0.9312522,0.8941622,-0.2697954
4425,0.9337703,0.8963478,-0.2719625
4427,0.9485323,0.9099972,-0.276953
4429,0.9485323,0.9099972,-0.276953
4432,0.9534706,0.9145018,-0.2797648
4434,0.9534706,0.9145018,-0.2797648
4436,0.9628648,0.922597,-0.2839303
4440,0.9608305,0.9206861,-0.2839303
4442,0.9608305,0.9206861,-0.2839303
4444,0.9589957,0.9191971,-0.2832403
4447,0.9589957,0.9191971,-0.2832403
4449,0.9495632,0.9099972,-0.2797648
4451,0.9495632,0.9099972,-0.2797648
4453,0.9429458,0.9039564,-0.2776587
4456,0.9364907,0.8972207,-0.2776587
4458,0.9364907,0.8972207,-0.2776587
4460,0.9352362,0.8959111,-0.2783625
4463,0.9352362,0.8959111,-0.2783625
4465,0.9293592,0.8897746,-0.276953
4467,0.9293592,0.8897746,-0.276953
4470,0.9255615,0.8860281,-0.276953
4472,0.9280951,0.8891146,-0.2748253
4474,0.9280951,0.8891146,-0.2748253
4477,0.9331415,0.8943809,-0.2741124
4480,0.9331415,0.8943809,-0.2741124
4482,0.9385778,0.9007034,-0.2712421
4485,0.939828,0.9026566,-0.2697954
4487,0.939828,0.9026566,-0.2697954
4489,0.9437756,0.9065502,-0.2676108
4492,0.9437756,0.9065502,-0.2676108
4494,0.9458466,0.9089215,-0.2668786
4496,0.9458466,0.9089215,-0.2668786
4499,0.949151,0.912574,-0.2661444
4501,0.949151,0.9130027,-0.2654082
4503,0.949151,0.9130027,-0.2654082
4506,0.9495632,0.9134313,-0.2639296
4508,0.9495632,0.9134313,-0.2639296
4510,0.948326,0.9123595,-0.2624426
4513,0.9481196,0.9121451,-0.2609472
4515,0.9481196,0.9121451,-0.2609472
4517,0.9446045,0.9093519,-0.2609472
4520,0.9446045,0.9093519,-0.2609472
4523,0.9437756,0.9082754,-0.2609472
4525,0.9437756,0.9082754,-0.2609472
4528,0.9310421,0.8965662,-0.2556444
4530,0.9268292,0.892629,-0.2533378
4532,0.9268292,0.892629,-0.2533378
4535,0.9155711,0.8822656,-0.249446
4537,0.9155711,0.8822656,-0.249446
4539,0.9155711,0.8822656,-0.249446
4541,0.9155711,0.8822656,-0.249446
4544,0.9155711,0.8822656,-0.249446
4546,0.9177057,0.8840382,-0.25101
4548,0.9177057,0.8840382,-0.25101
4551,0.913217,0.8800449,-0.2486604
4553,0.913217,0.8800449,-0.2486604
4555,0.9069818,0.8746923,-0.2462884
4558,0.9091367,0.8764802,-0.2478722
4560,0.9091367,0.8764802,-0.2478722
4562,0.9121451,0.8791551,-0.2502292
4566,0.9121451,0.8791551,-0.2502292
4568,0.9084908,0.8758101,-0.2478722
4570,0.9084908,0.8758101,-0.2478722
4573,0.9037398,0.8711056,-0.2454926
4575,0.899834,0.8677295,-0.2438933
4577,0.899834,0.8677295,-0.2438933
4580,0.8967844,0.864793,-0.2430897
4582,0.8967844,0.864793,-0.2430897
4584,0.8921905,0.861165,-0.2406627
4587,0.8882338,0.8572935,-0.2398483
4589,0.8882338,0.8572935,-0.2398483
4591,0.8921905,0.8609378,-0.2414744
4594,0.8921905,0.8609378,-0.2414744
4596,0.8954742,0.8641139,-0.2422834
4598,0.8954742,0.8641139,-0.2422834
4601,0.8965662,0.8645667,-0.2430897
4603,0.8952556,0.8634343,-0.2422834
4605,0.8952556,0.8634343,-0.2422834
4609,0.8945997,0.8634343,-0.2414744
4611,0.8945997,0.8634343,-0.2414744
4613,0.8937243,0.8629809,-0.2398483
4616,0.8906538,0.8600281,-0.2390311
4618,0.8906538,0.8600281,-0.2390311
4620,0.8882338,0.8572935,-0.2390311
4622,0.8882338,0.8572935,-0.2390311
4625,0.8866904,0.8561515,-0.2390311
4627,0.8866904,0.8561515,-0.2390311
4629,0.8853652,0.8545501,-0.2390311
4632,0.884702,0.8536337,-0.2390311
4634,0.884702,0.8536337,-0.2390311
4636,0.8838168,0.8524867,-0.2406627
4639,0.8838168,0.8524867,-0.2406627
4641,0.8802673,0.8476528,-0.2454926
4643,0.8782644,0.8451096,-0.2478722
4646,0.8782644,0.8451096,-0.2478722
4648,0.8767033,0.842791,-0.2502292
4651,0.8767033,0.842791,-0.2502292
4654,0.8778186,0.8432553,-0.2548778
4656,0.8778186,0.8432553,-0.2548778
4658,0.8782644,0.8437192,-0.2556444
4661,0.8787099,0.8437192,-0.2586879
4663,0.8787099,0.8437192,-0.2586879
4665,0.8793777,0.8432553,-0.2609472
4668,0.8793777,0.8432553,-0.2609472
4670,0.8796002,0.8432553,-0.2624426
4672,0.8796002,0.8432553,-0.2624426
4675,0.8800449,0.8434873,-0.2631872
4677,0.8798226,0.842791,-0.2654082
4679,0.8798226,0.842791,-0.2654082
4682,0.8778186,0.8411642,-0.2654082
4684,0.8778186,0.8411642,-0.2654082
4686,0.8764802,0.8395343,-0.2661444
4689,0.8758101,0.8386015,-0.2661444
4691,0.8827091,0.8448781,-0.268341
4694,0.8891146,0.8504184,-0.2719625
4697,0.8891146,0.8504184,-0.2719625
4699,0.8939433,0.8554656,-0.2733977
4701,0.8939433,0.8554656,-0.2733977
4704,0.8987461,0.8593453,-0.2755364
4706,0.8956926,0.8559229,-0.2762456
4708,0.8956926,0.8559229,-0.2762456
4710,0.8939433,0.8545501,-0.2762456
4713,0.8939433,0.8545501,-0.2762456
4715,0.8932863,0.8534044,-0.276953
4717,0.8882338,0.8485757,-0.2748253
4720,0.8882338,0.8485757,-0.2748253
4722,0.8871316,0.847191,-0.2748253
4724,0.8871316,0.847191,-0.2748253
4727,0.8952556,0.8636609,-0.272681
4729,0.9028733,0.8636609,-0.272681
4731,0.9024397,0.8634343,-0.272681
4734,0.90309,0.8638874,-0.272681
4737,0.90309,0.8638874,-0.272681
4739,0.9039564,0.864793,-0.2719625
4742,0.9039564,0.864793,-0.2719625
4744,0.901572,0.8636609,-0.2668786
4746,0.901572,0.8636609,-0.2668786
4749,0.9013549,0.8643403,-0.2654082
4751,0.8985283,0.8616194,-0.2654082
4753,0.8985283,0.8616194,-0.2654082
4756,0.8956926,0.8588898,-0.2646699
4758,0.8956926,0.8588898,-0.2646699
4760,0.8928481,0.8556943,-0.2654082
4763,0.8910931,0.8531751,-0.2654082
4765,0.8910931,0.8531751,-0.2654082
4767,0.8880135,0.8504184,-0.2654082
4770,0.8858072,0.8485757,-0.2654082
4772,0.884702,0.8474219,-0.2654082
4774,0.884702,0.8474219,-0.2654082
4777,0.8858072,0.8488063,-0.2639296
4780,0.886911,0.8504184,-0.2624426
4782,0.886911,0.8504184,-0.2624426
4785,0.8862489,0.8494976,-0.2624426
4787,0.8862489,0.8494976,-0.2624426
4789,0.8862489,0.8492672,-0.2631872
4792,0.8862489,0.8488063,-0.2646699
4794,0.8862489,0.8488063,-0.2646699
4796,0.8864697,0.8490367,-0.2661444
4798,0.8864697,0.8490367,-0.2661444
4801,0.8813781,0.8437192,-0.2654082
4803,0.8813781,0.8437192,-0.2654082
4805,0.8749159,0.8364988,-0.2654082
4808,0.8746923,0.8362648,-0.2654082
4810,0.8746923,0.8362648,-0.2654082
4812,0.8751395,0.8364988,-0.2661444
4815,0.8751395,0.8364988,-0.2661444
4817,0.8744686,0.8357967,-0.2661444
4819,0.8744686,0.8362648,-0.2661444
4823,0.8744686,0.8362648,-0.2661444
4825,0.8744686,0.8367326,-0.2654082
4827,0.8744686,0.8367326,-0.2654082
4830,0.8751395,0.8374339,-0.2654082
4832,0.8751395,0.8374339,-0.2654082
4834,0.8598006,0.8223435,-0.2631872
4837,0.8469599,0.8101172,-0.2609472
4839,0.8469599,0.8101172,-0.2609472
4841,0.8313365,0.7942618,-0.2624426
4844,0.8313365,0.7942618,-0.2624426
4846,0.8270888,0.7895671,-0.2639296
4848,0.8270888,0.7895671,-0.2639296
4851,0.8301588,0.7925354,-0.2646699
4853,0.8322775,0.7947544,-0.2646699
4855,0.8322775,0.7947544,-0.2646699
4858,0.8336869,0.7959845,-0.2646699
4860,0.8336869,0.7959845,-0.2646699
4862,0.8247196,0.7873334,-0.2624426
4866,0.8163731,0.7798419,-0.261696
4868,0.8163731,0.7798419,-0.261696
4870,0.8289794,0.7932757,-0.2609472
4873,0.8289794,0.7932757,-0.2609472
4875,0.8497278,0.8130105,-0.2646699
4877,0.8497278,0.8130105,-0.2646699
4880,0.8666012,0.8289794,-0.2690692
4882,0.8804895,0.8423266,-0.2719625
4884,0.8804895,0.8423266,-0.2719625
4886,0.8686311,0.8303944,-0.2705197
4889,0.8686311,0.8303944,-0.2705197
4891,0.858434,0.8204377,-0.2697954
4893,0.8216294,0.7775803,-0.2825486
4896,0.8216294,0.7775803,-0.2825486
4898,0.8076981,0.7610474,-0.2873554
4900,0.8076981,0.7610474,-0.2873554
4903,0.804056,0.7569224,-0.2880355
4905,0.804056,0.7569224,-0.2880355
4908,0.8110828,0.7646385,-0.2859903
4911,0.8192443,0.7740492,-0.2839303
4913,0.8192443,0.7740492,-0.2839303
4915,0.8259051,0.7815963,-0.2818553
4918,0.8259051,0.7815963,-0.2818553
4920,0.8395343,0.7979487,-0.2762456
4922,0.844183,0.8038125,-0.2733977
4925,0.844183,0.8038125,-0.2733977
4927,0.8529457,0.8146936,-0.268341
4929,0.8529457,0.8146936,-0.268341
4932,0.8559229,0.8187665,-0.2661444
4934,0.8559229,0.8187665,-0.2661444
4936,0.8609378,0.8249568,-0.2624426
4939,0.8629809,0.8275619,-0.2609472
4941,0.8629809,0.8275619,-0.2609472
4943,0.8625273,0.8275619,-0.2594432
4946,0.8625273,0.8275619,-0.2594432
4948,0.8625273,0.828271,-0.2586879
4951,0.8625273,0.828271,-0.2586879
4954,0.8600281,0.8263788,-0.2556444
4956,0.8591176,0.8254311,-0.2548778
4958,0.8591176,0.8254311,-0.2548778
4961,0.8011303,0.7677034,-0.2462884
4963,0.8011303,0.7677034,-0.2462884
4965,0.7790887,0.7459858,-0.2430897
4968,0.6617518,0.6373509,-0.2176059
4970,0.5637122,0.5496522,-0.1958353
4972,0.4825446,0.4796977,-0.1780411
4974,0.4825446,0.4796977,-0.1780411
4977,0.4805128,0.4861804,-0.1398823
4979,0.4805128,0.4861804,-0.1398823
4981,0.4780633,0.4869847,-0.1282043
4984,0.6000308,0.6119779,-0.09487279
4986,0.6000308,0.6119779,-0.09487279
4988,0.7873334,0.8001527,-0.04423466
4992,0.7873334,0.8001527,-0.04423466
4994,0.782347,0.7932757,-0.05233916
4996,0.7722777,0.7808449,-0.05595291
4999,0.7722777,0.7808449,-0.05595291
5001,0.7222635,0.7287365,-0.07401875
5003,0.7222635,0.7287365,-0.07401875
5006,0.64589,0.6477052,-0.09891172
5008,0.64589,0.6477052,-0.09891172
5010,0.6296288,0.6265134,-0.1153499
5013,0.615167,0.607807,-0.1266688
5015,0.5974163,0.5858405,-0.1370561
5017,0.5818186,0.5661368,-0.14537
5020,0.5818186,0.5661368,-0.14537
5022,0.5675176,0.5485832,-0.1519511
5024,0.5675176,0.5485832,-0.1519511
5027,0.5702693,0.5460806,-0.165511
5029,0.5695826,0.5428462,-0.1713202
5031,0.5695826,0.5428462,-0.1713202
5035,0.577091,0.5478694,-0.1802258
5037,0.577091,0.5478694,-0.1802258
5039,0.5777687,0.5471546,-0.1823843
5042,0.5947903,0.564406,-0.183454
5044,0.5947903,0.564406,-0.183454
5046,0.5993783,0.5695826,-0.1845175
5049,0.5993783,0.5695826,-0.1845175
5051,0.6061952,0.5757331,-0.1845175
5053,0.6061952,0.5757331,-0.1845175
5056,0.6081289,0.5777687,-0.1855749
5058,0.612617,0.5821548,-0.1876719
5060,0.612617,0.5821548,-0.1876719
5062,0.6132555,0.5821548,-0.1887116
5065,0.6132555,0.5821548,-0.1887116
5067,0.6132555,0.5824909,-0.1887116
5069,0.6122975,0.5811456,-0.1897456
5072,0.6122975,0.5811456,-0.1897456
5074,0.6113381,0.5794597,-0.1907741
5076,0.6113381,0.5794597,-0.1907741
5080,0.6106976,0.5787839,-0.1897456
5082,0.6106976,0.5787839,-0.1897456
5084,0.6061952,0.5747126,-0.1887116
5087,0.5970887,0.5668277,-0.1866263
5089,0.5970887,0.5668277,-0.1866263
5091,0.5951191,0.5654452,-0.1845175
5094,0.5951191,0.5654452,-0.1845175
5096,0.590498,0.5619739,-0.1823843
5098,0.5740312,0.5460806,-0.1802258
5101,0.5740312,0.5460806,-0.1802258
5103,0.5475121,0.5203939,-0.1780411
5105,0.5475121,0.5203939,-0.1780411
5108,0.5348573,0.5089886,-0.1735894
5110,0.5348573,0.5089886,-0.1735894
5112,0.5143426,0.4897892,-0.166689
5115,0.5078341,0.4837596,-0.1631294
5117,0.5078341,0.4837596,-0.1631294
5120,0.4953507,0.4722982,-0.1582588
5123,0.4953507,0.4722982,-0.1582588
5125,0.4877876,0.4652019,-0.1582588
5127,0.4877876,0.4652019,-0.1582588
5130,0.4743652,0.4528397,-0.1570175
5132,0.4722982,0.450674,-0.1557664
5134,0.4722982,0.450674,-0.1557664
5137,0.4698059,0.4484978,-0.1545051
5139,0.4698059,0.4484978,-0.1545051
5141,0.4992853,0.4776538,-0.1557664
5144,0.5256317,0.5031891,-0.1582588
5146,0.5256317,0.5031891,-0.1582588
5148,0.577091,0.5542608,-0.1643245
5150,0.577091,0.5542608,-0.1643245
5153,0.6016592,0.5794597,-0.166689
5155,0.6016592,0.5794597,-0.166689
5157,0.7019292,0.6781085,-0.183454
5160,0.7679582,0.7430948,-0.1938267
5163,0.7679582,0.7430948,-0.1938267
5165,0.8270888,0.8006416,-0.2074791
5168,0.8270888,0.8006416,-0.2074791
5170,0.8320423,0.8047857,-0.2112177
5172,0.8367326,0.8089085,-0.2148914
5175,0.8146936,0.7860898,-0.2158
5177,0.7977034,0.7684676,-0.2176059
5179,0.7977034,0.7684676,-0.2176059
5182,0.7843454,0.7545922,-0.2185032
5184,0.7843454,0.7545922,-0.2185032
5186,0.7610474,0.7298098,-0.2229358
5189,0.7530347,0.721179,-0.2246844
5191,0.7530347,0.721179,-0.2246844
5193,0.7412493,0.7088641,-0.2264194
5196,0.7412493,0.7088641,-0.2264194
5198,0.7375443,0.7049889,-0.2281412
5200,0.7375443,0.7049889,-0.2281412
5203,0.7753122,0.741777,-0.234068
5206,0.7903101,0.7558876,-0.2373883
5208,0.7903101,0.7558876,-0.2373883
5211,0.8308656,0.7954926,-0.2446942
5213,0.8308656,0.7954926,-0.2446942
5215,0.8467289,0.811324,-0.2478722
5218,0.8395343,0.8023506,-0.2517883
5220,0.8395343,0.8023506,-0.2517883
5222,0.8379012,0.8001527,-0.254109
5225,0.8379012,0.8001527,-0.254109
5227,0.8206762,0.7815963,-0.2556444
5229,0.8206762,0.7815963,-0.2556444
5231,0.796476,0.7556288,-0.2594432
5234,0.8101172,0.7666831,-0.2690692
5236,0.8218675,0.7765731,-0.276953
5238,0.8322775,0.7848442,-0.2839303
5241,0.8322775,0.7848442,-0.2839303
5243,0.8467289,0.7977034,-0.2927522
5245,0.8527163,0.8033255,-0.2960753
5249,0.8527163,0.8033255,-0.2960753
5251,0.8654715,0.8168523,-0.2960753
5253,0.8654715,0.8168523,-0.2960753
5256,0.8862489,0.8381346,-0.2960753
5258,0.8862489,0.8381346,-0.2960753
5260,0.8782644,0.8301588,-0.2960753
5263,0.8688563,0.8201992,-0.2967354
5265,0.8688563,0.8201992,-0.2967354
5267,0.8588898,0.8108415,-0.2934199
5270,0.8588898,0.8108415,-0.2934199
5272,0.8460353,0.798929,-0.2887141
5274,0.845804,0.798684,-0.2887141
5277,0.845804,0.798684,-0.2887141
5279,0.8462666,0.7996635,-0.2887141
5281,0.8462666,0.7996635,-0.2887141
5284,0.8409316,0.7950006,-0.2853053
5286,0.8409316,0.7950006,-0.2853053
5288,0.8367326,0.7915472,-0.2825486
5292,0.8268523,0.7828471,-0.2755364
5294,0.8268523,0.7828471,-0.2755364
5296,0.8175707,0.7750598,-0.2697954
5299,0.8175707,0.7750598,-0.2697954
5301,0.8047857,0.7633579,-0.2646699
5303,0.8047857,0.7633579,-0.2646699
5306,0.7947544,0.7543329,-0.2601963
5308,0.7727842,0.7351527,-0.2502292
5310,0.7727842,0.7351527,-0.2502292
5313,0.7615615,0.7249676,-0.2446942
5315,0.7615615,0.7249676,-0.2446942
5317,0.7407211,0.7066523,-0.2349025
5319,0.7314168,0.6982958,-0.2306999
5322,0.7314168,0.6982958,-0.2306999
5324,0.7170975,0.6855699,-0.2238118
5326,0.7170975,0.6855699,-0.2238118
5329,0.711069,0.680988,-0.220287
5331,0.711069,0.680988,-0.220287
5334,0.708588,0.6792617,-0.2176059
5337,0.7099674,0.6815624,-0.2176059
5339,0.7099674,0.6815624,-0.2176059
5341,0.7121689,0.6841414,-0.2167048
5344,0.7121689,0.6841414,-0.2167048
5346,0.7132671,0.6849989,-0.2158
5348,0.7303458,0.7024865,-0.2167048
5351,0.7303458,0.7024865,-0.2167048
5353,0.7438844,0.7162784,-0.2167048
5355,0.7438844,0.7162784,-0.2167048
5358,0.7551107,0.7273927,-0.2176059
5360,0.7551107,0.7273927,-0.2176059
5362,0.798929,0.7699938,-0.2272819
5365,0.8158936,0.7860898,-0.2306999
5367,0.8158936,0.7860898,-0.2306999
5369,0.8254311,0.7947544,-0.235734
5372,0.8254311,0.7947544,-0.235734
5374,0.8397673,0.8086666,-0.2382111
5377,0.8634343,0.8315719,-0.2430897
5380,0.8634343,0.8315719,-0.2430897
5382,0.8699816,0.8386015,-0.2430897
5384,0.8699816,0.8386015,-0.2430897
5387,0.8827091,0.8515682,-0.2430897
5389,0.8827091,0.8515682,-0.2430897
5391,0.8884541,0.8572935,-0.2430897
5394,0.8919711,0.8613922,-0.2422834
5396,0.8919711,0.8613922,-0.2422834
5398,0.8910931,0.8609378,-0.2406627
5401,0.8910931,0.8609378,-0.2406627
5403,0.8910931,0.8613922,-0.2398483
5405,0.8910931,0.8613922,-0.2398483
5407,0.8910931,0.8620735,-0.2365626
5410,0.8913127,0.8627541,-0.235734
5412,0.8913127,0.8627541,-0.235734
5414,0.90309,0.8726766,-0.2430897
5417,0.90309,0.8726766,-0.2430897
5420,0.912574,0.8809339,-0.249446
5422,0.9208986,0.8884541,-0.254109
5425,0.9208986,0.8884541,-0.254109
5427,0.9431533,0.9119305,-0.2517883
5429,0.9431533,0.9119305,-0.2517883
5432,0.9524438,0.9219604,-0.2502292
5434,0.9524438,0.9219604,-0.2502292
5436,0.9505931,0.9234449,-0.2365626
5439,0.9512104,0.9253501,-0.2306999
5441,0.9512104,0.9253501,-0.2306999
5443,0.9425307,0.917919,-0.2246844
5446,0.9362817,0.9130027,-0.220287
5448,0.9318824,0.9095671,-0.2167048
5450,0.9091367,0.8875727,-0.2093567
5453,0.9091367,0.8875727,-0.2093567
5455,0.8762568,0.8568369,-0.1978235
5457,0.8762568,0.8568369,-0.1978235
5460,0.8855863,0.8654715,-0.2017412
5463,0.8855863,0.8654715,-0.2017412
5465,0.9119305,0.8913127,-0.2074791
5468,0.9278842,0.906766,-0.2102893
5470,0.9278842,0.906766,-0.2102893
5472,0.9278842,0.906766,-0.2102893
5475,0.9278842,0.906766,-0.2102893
5477,0.9278842,0.906766,-0.2102893
5479,0.9278842,0.906766,-0.2102893
5482,0.9542912,0.9323022,-0.2176059
5484,0.9897227,0.9671232,-0.2229358
5486,0.9897227,0.9671232,-0.2229358
5489,1.003857,0.9809847,-0.2246844
5491,1.003857,0.9809847,-0.2246844
5493,1.034954,1.011817,-0.2264194
5495,1.047545,1.024311,-0.2281412
5498,1.047545,1.024311,-0.2281412
5500,1.058509,1.03571,-0.2272819
5502,1.058509,1.03571,-0.2272819
5506,1.064041,1.041175,-0.2272819
5508,1.064041,1.041175,-0.2272819
5510,1.063121,1.040423,-0.2246844
5513,1.063856,1.041362,-0.2238118
5515,1.063856,1.041362,-0.2238118
5517,1.047732,1.025838,-0.220287
5520,1.047732,1.025838,-0.220287
5522,1.025457,1.004442,-0.2130625
5524,1.015485,0.9952432,-0.2093567
5527,1.015485,0.9952432,-0.2093567
5529,1.007942,0.9881397,-0.2055842
5531,1.007942,0.9881397,-0.2055842
5534,0.9956363,0.9765865,-0.2017412
5536,0.9956363,0.9765865,-0.2017412
5538,0.9907107,0.971967,-0.1988102
5541,0.9968149,0.9773876,-0.2046302
5543,0.9968149,0.9773876,-0.2046302
5545,1.006971,0.9863558,-0.2112177
5549,1.006971,0.9863558,-0.2112177
5551,1.118901,1.111003,-0.1557664
5553,1.214987,1.213859,-0.1083524
5556,1.214987,1.213859,-0.1083524
5558,1.302962,1.306861,-0.0656106
5560,1.302962,1.306861,-0.0656106
5563,1.308806,1.313582,-0.05595291
5565,1.308806,1.313582,-0.05595291
5567,1.236539,1.241277,-0.06255726
5570,1.173032,1.177195,-0.07132626
5572,1.173032,1.177195,-0.07132626
5574,1.050157,1.051088,-0.09278741
5577,1.050157,1.051088,-0.09278741
5579,0.9918951,0.9905132,-0.1046783
5581,0.9918951,0.9905132,-0.1046783
5583,0.8822656,0.8760335,-0.1266688
5586,0.8311011,0.8225815,-0.1356209
5588,0.8311011,0.8225815,-0.1356209
5591,0.7491269,0.7362165,-0.1519511
5594,0.7491269,0.7362165,-0.1519511
5596,0.7162784,0.7005339,-0.1582588
5598,0.687565,0.6693957,-0.1643245
5601,0.687565,0.6693957,-0.1643245
5603,0.6567059,0.6339648,-0.1780411
5605,0.6567059,0.6339648,-0.1780411
5608,0.6428534,0.6180231,-0.183454
5610,0.6428534,0.6180231,-0.183454
5612,0.6342734,0.6065179,-0.191797
5615,0.6286958,0.5993783,-0.1958353
5617,0.6286958,0.5993783,-0.1958353
5619,0.6495153,0.6189722,-0.2036718
5622,0.6495153,0.6189722,-0.2036718
5624,0.6549156,0.6236961,-0.2065338
5626,0.6952065,0.6629335,-0.2158
5629,0.6952065,0.6629335,-0.2158
5632,0.7083117,0.6755064,-0.2193969
5634,0.7083117,0.6755064,-0.2193969
5637,0.7430948,0.7096917,-0.2272819
5639,0.7430948,0.7096917,-0.2272819
5641,0.7595032,0.7263159,-0.2289973
5644,0.7810954,0.747558,-0.2332305
5646,0.7810954,0.747558,-0.2332305
5648,0.7878303,0.7540734,-0.235734
5651,0.7878303,0.7540734,-0.235734
5653,0.8042993,0.770502,-0.2382111
5655,0.8042993,0.770502,-0.2382111
5658,0.8093922,0.7753122,-0.2382111
5660,0.8218675,0.7895671,-0.2365626
5662,0.8218675,0.7895671,-0.2365626
5665,0.8256681,0.7937689,-0.235734
5667,0.8256681,0.7937689,-0.235734
5669,0.835094,0.806971,-0.2281412
5671,0.8379012,0.8108415,-0.2255535
5675,0.8379012,0.8108415,-0.2255535
5677,0.8572935,0.8308656,-0.2238118
5679,0.8572935,0.8308656,-0.2238118
5682,0.8634343,0.8374339,-0.2238118
5684,0.8634343,0.8374339,-0.2238118
5686,0.8948184,0.8704314,-0.2211734
5689,0.9056864,0.8816,-0.220287
5691,0.9056864,0.8816,-0.220287
5693,0.9775878,0.9549061,-0.2255535
5696,0.9775878,0.9549061,-0.2255535
5698,1.004442,0.9817823,-0.2281412
5700,0.9956363,0.9713628,-0.2332305
5703,0.9956363,0.9713628,-0.2332305
5705,0.9825793,0.9555206,-0.2414744
5707,0.9825793,0.9555206,-0.2414744
5710,0.9624583,0.9331415,-0.2470816
5712,0.9624583,0.9331415,-0.2470816
5714,0.9316724,0.8987461,-0.254109
5718,0.9136455,0.8789325,-0.2579304
5720,0.9136455,0.8789325,-0.2579304
5722,0.8862489,0.848345,-0.2639296
5725,0.8862489,0.848345,-0.2639296
5727,0.8742447,0.835094,-0.2654082
5729,0.8568369,0.8156537,-0.2690692
5732,0.8568369,0.8156537,-0.2690692
5734,0.8506485,0.8084246,-0.2712421
5736,0.8506485,0.8084246,-0.2712421
5739,0.8409316,0.796476,-0.2748253
5741,0.8409316,0.796476,-0.2748253
5743,0.8367326,0.7917944,-0.2755364
5746,0.8296872,0.7835966,-0.2783625
5748,0.8296872,0.7835966,-0.2783625
5750,0.8270888,0.7808449,-0.2783625
5753,0.8270888,0.7808449,-0.2783625
5755,0.8249568,0.7783349,-0.2790645
5757,0.8249568,0.7783349,-0.2790645
5760,0.8303944,0.7828471,-0.2818553
5763,0.840466,0.7920414,-0.2859903
5765,0.840466,0.7920414,-0.2859903
5767,0.8464977,0.7974581,-0.2880355
5770,0.8464977,0.7974581,-0.2880355
5772,0.8508785,0.8013745,-0.2900664
5774,0.8355626,0.7858408,-0.2887141
5777,0.8355626,0.7858408,-0.2887141
5779,0.8197219,0.7699938,-0.2853053
5781,0.8197219,0.7699938,-0.2853053
5784,0.8108415,0.7620752,-0.2818553
5786,0.8108415,0.7620752,-0.2818553
5788,0.8064859,0.7579558,-0.2804634
5791,0.8064859,0.7579558,-0.2811602
5793,0.8064859,0.7579558,-0.2811602
5795,0.8052719,0.7569224,-0.2804634
5798,0.8052719,0.7569224,-0.2804634
5800,0.7935224,0.7449358,-0.2790645
5803,0.7883269,0.7399282,-0.2790645
5806,0.7883269,0.7399282,-0.2790645
5808,0.7843454,0.7354187,-0.2818553
5810,0.7843454,0.7354187,-0.2818553
5813,0.7770769,0.7263159,-0.2859903
5815,0.7770769,0.7263159,-0.2859903
5817,0.7478197,0.6954879,-0.2880355
5820,0.7359507,0.6832828,-0.2887141
5822,0.7359507,0.6832828,-0.2887141
5824,0.7179157,0.6647022,-0.2887141
5827,0.7179157,0.6647022,-0.2887141
5829,0.6895542,0.6355062,-0.2880355
5831,0.6676395,0.6132555,-0.2873554
5834,0.6676395,0.6132555,-0.2873554
5836,0.6318005,0.5777687,-0.2866737
5838,0.6318005,0.5777687,-0.2866737
5840,0.6623429,0.6097356,-0.2853053
5843,0.6623429,0.6097356,-0.2853053
5846,0.7063754,0.6567059,-0.2825486
5848,0.7255072,0.6763749,-0.2825486
5851,0.7255072,0.6763749,-0.2825486
5853,0.7522548,0.7038778,-0.2825486
5855,0.7522548,0.7038778,-0.2825486
5858,0.8047857,0.7566639,-0.2887141
5860,0.8047857,0.7566639,-0.2887141
5862,0.848345,0.7999081,-0.2940859
5865,0.9071976,0.8600281,-0.2954137
5867,0.9071976,0.8600281,-0.2954137
5869,0.9261956,0.8804895,-0.2927522
5872,0.9261956,0.8804895,-0.2927522
5874,0.9427382,0.8978747,-0.2914124
5876,0.9295698,0.8864697,-0.2825486
5879,0.9295698,0.8864697,-0.2825486
5881,0.9257729,0.8831524,-0.2797648
5883,0.9257729,0.8831524,-0.2797648
5886,0.9775878,0.9360726,-0.2811602
5889,0.9775878,0.9360726,-0.2811602
5891,0.9983841,0.9571576,-0.2818553
5894,1.025838,0.9851648,-0.2825486
5896,1.025838,0.9851648,-0.2825486
5898,1.037598,0.9970112,-0.2839303
5901,1.037598,0.9970112,-0.2839303
5903,1.05053,1.01085,-0.2818553
5905,1.064776,1.024693,-0.2859903
5908,1.064776,1.024693,-0.2859903
5910,1.067896,1.026792,-0.2900664
5912,1.067896,1.026792,-0.2900664
5915,1.062936,1.021442,-0.2907402
5917,1.062936,1.021442,-0.2907402
5919,1.056844,1.015678,-0.2887141
5922,1.055732,1.014907,-0.2866737
5924,1.055732,1.014907,-0.2866737
5926,1.058879,1.017987,-0.2873554
5928,1.058879,1.017987,-0.2873554
5932,1.0622,1.021442,-0.2880355
5934,1.0622,1.021442,-0.2880355
5936,1.063121,1.022399,-0.2873554
5939,1.064224,1.023164,-0.2880355
5941,1.064224,1.023164,-0.2880355
5943,1.064408,1.023355,-0.2880355
5946,1.064408,1.023355,-0.2880355
5948,1.072649,1.032114,-0.2880355
5950,1.079015,1.038917,-0.2880355
5953,1.079015,1.038917,-0.2880355
5955,1.091636,1.05053,-0.2927522
5957,1.091636,1.05053,-0.2927522
5960,1.097536,1.055547,-0.2967354
5962,1.097536,1.055547,-0.2967354
5964,1.107298,1.064041,-0.301316
5967,1.098961,1.055918,-0.301316
5969,1.098961,1.055918,-0.301316
5971,1.092711,1.049412,-0.3006659
5975,1.092711,1.049412,-0.3006659
5977,1.092353,1.047919,-0.3045456
5979,1.092532,1.047732,-0.3064671
5982,1.092532,1.047732,-0.3064671
5984,1.10074,1.057584,-0.3006659
5986,1.10074,1.057584,-0.3006659
5989,1.104113,1.061831,-0.2980514
5991,1.104113,1.061831,-0.2980514
5993,1.111708,1.071919,-0.2907402
5996,1.114871,1.07611,-0.2873554
5998,1.114871,1.07611,-0.2873554
6000,1.057399,1.019524,-0.2762456
6003,1.057399,1.019524,-0.2762456
6005,1.036088,0.9985801,-0.2719625
6007,1.038728,0.9989719,-0.2804634
6010,1.038728,0.9989719,-0.2804634
6012,1.039293,0.9989719,-0.2825486
6014,1.039293,0.9989719,-0.2825486
6017,1.037598,0.9974037,-0.2818553
6020,1.037598,0.9974037,-0.2818553
6022,1.034765,0.9948499,-0.2804634
6024,1.034387,0.9950465,-0.2790645
6027,1.034387,0.9950465,-0.2790645
6029,1.03363,0.9954398,-0.276953
6031,1.03363,0.9954398,-0.276953
6034,1.016256,0.9781881,-0.2719625
6036,1.016256,0.9781881,-0.2719625
6038,0.9891293,0.9520329,-0.2661444
6041,0.9991678,0.9616448,-0.268341
6043,0.9991678,0.9616448,-0.268341
6045,1.006777,0.9691444,-0.2697954
6048,1.006777,0.9691444,-0.2697954
6050,1.012591,0.9747815,-0.2705197
6052,1.012204,0.9745807,-0.2697954
6055,1.012204,0.9745807,-0.2697954
6057,1.013943,0.9765865,-0.2690692
6060,1.013943,0.9765865,-0.2690692
6063,1.015678,0.9783881,-0.2697954
6065,1.015678,0.9783881,-0.2697954
6067,1.019716,0.9825793,-0.2697954
6070,1.022016,0.9849661,-0.2705197
6072,1.022016,0.9849661,-0.2705197
6074,1.030976,0.991303,-0.2797648
6077,1.030976,0.991303,-0.2797648
6079,1.036843,0.9956363,-0.2873554
6081,1.052391,1.008912,-0.2960753
6084,1.052391,1.008912,-0.2960753
6086,1.061278,1.017411,-0.2980514
6088,1.061278,1.017411,-0.2980514
6091,1.085164,1.040234,-0.3051875
6093,1.085164,1.040234,-0.3051875
6095,1.099139,1.053506,-0.309643
6098,1.110475,1.064224,-0.3127867
6100,1.110475,1.064224,-0.3127867
6103,1.117501,1.068811,-0.3220336
6105,1.117501,1.068811,-0.3220336
6108,1.119076,1.070641,-0.3208161
6110,1.119076,1.070641,-0.3208161
6112,1.122219,1.07429,-0.3195939
6115,1.122393,1.07429,-0.3202056
6117,1.122393,1.07429,-0.3202056
6119,1.123439,1.0752,-0.3214254
6122,1.123439,1.0752,-0.3214254
6124,1.12431,1.075746,-0.3220336
6126,1.134877,1.089483,-0.3134116
6129,1.134877,1.089483,-0.3134116
6131,1.139351,1.095037,-0.3102743
6133,1.139351,1.095037,-0.3102743
6136,1.106591,1.065143,-0.2954137
6138,1.106591,1.065143,-0.2954137
6140,1.094858,1.054434,-0.2900664
6144,1.089124,1.049784,-0.2853053
6146,1.089124,1.049784,-0.2853053
6148,1.086785,1.048105,-0.2832403
6151,1.086785,1.048105,-0.2832403
6153,1.079378,1.040799,-0.2818553
6155,1.09593,1.057954,-0.2811602
6158,1.09593,1.057954,-0.2811602
6160,1.109417,1.072467,-0.2804634
6162,1.109417,1.072467,-0.2804634
6165,1.086425,1.049971,-0.2748253
6167,1.086425,1.049971,-0.2748253
6169,1.058139,1.021633,-0.2712421
6172,1.017411,0.9805858,-0.2676108
6174,1.017411,0.9805858,-0.2676108
6176,1.003077,0.9659084,-0.2668786
6179,1.003077,0.9659084,-0.2668786
6181,0.9801866,0.9427382,-0.2654082
6183,0.9893272,0.9514161,-0.2668786
6187,0.9893272,0.9514161,-0.2668786
6189,0.9559301,0.9177057,-0.2646699
6191,0.9559301,0.9177057,-0.2646699
6193,0.9219604,0.8833739,-0.2609472
6196,0.9219604,0.8833739,-0.2609472
6198,0.8928481,0.854092,-0.2571706
6200,0.81781,0.7800927,-0.2430897
6203,0.81781,0.7800927,-0.2430897
6205,0.7878303,0.7506924,-0.2373883
6207,0.7878303,0.7506924,-0.2373883
6210,0.7587299,0.7217214,-0.2332305
6212,0.7587299,0.7217214,-0.2332305
6214,0.7459858,0.708588,-0.2306999
6217,0.7519946,0.7157319,-0.2281412
6219,0.7519946,0.7157319,-0.2281412
6221,0.7522548,0.7162784,-0.2264194
6224,0.7522548,0.7162784,-0.2264194
6226,0.7641266,0.729005,-0.2255535
6228,0.7669383,0.7316842,-0.2255535
6232,0.7669383,0.7316842,-0.2255535
6234,0.8225815,0.7880787,-0.2315465
6236,0.8225815,0.7880787,-0.2315465
6239,0.8416294,0.8076981,-0.2332305
6241,0.8416294,0.8076981,-0.2332305
6243,0.8374339,0.8021067,-0.2365626
6246,0.8348597,0.7991739,-0.2373883
6248,0.8348597,0.7991739,-0.2373883
6250,0.8329825,0.7969672,-0.2382111
6253,0.8329825,0.7969672,-0.2382111
6255,0.8277984,0.7917944,-0.2373883
6257,0.8740209,0.8388348,-0.2422834
6260,0.8740209,0.8388348,-0.2422834
6262,0.8908735,0.8556943,-0.2446942
6264,0.8908735,0.8556943,-0.2446942
6267,0.9033066,0.867955,-0.2470816
6269,0.9033066,0.867955,-0.2470816
6272,0.9215358,0.8858072,-0.249446
6275,0.9406604,0.9056864,-0.25101
6277,0.9406604,0.9056864,-0.25101
6279,0.9691444,0.9350269,-0.2517883
6281,0.9691444,0.9350269,-0.2517883
6284,1.004052,0.9709598,-0.254109
6286,1.033061,1.000929,-0.2556444
6288,1.033061,1.000929,-0.2556444
6291,1.034576,1.002687,-0.254109
6293,1.034576,1.002687,-0.254109
6295,1.015871,0.9835745,-0.2533378
6298,1.015871,0.9835745,-0.2533378
6300,0.9783881,0.9462603,-0.2470816
6302,0.9602193,0.9283059,-0.2438933
6305,0.9602193,0.9283059,-0.2438933
6307,0.9213235,0.8891146,-0.2382111
6309,0.9213235,0.8891146,-0.2382111
6312,0.901789,0.8693066,-0.2373883
6315,0.901789,0.8693066,-0.2373883
6317,0.8702065,0.8364988,-0.2365626
6320,0.8570652,0.8228193,-0.2365626
6322,0.8570652,0.8228193,-0.2365626
6324,0.8740209,0.839068,-0.2406627
6327,0.8740209,0.839068,-0.2406627
6329,0.8970026,0.8618464,-0.2438933
6331,0.9157847,0.8807117,-0.2470816
6334,0.9157847,0.8807117,-0.2470816
6336,0.9671232,0.9316724,-0.2548778
6338,0.9671232,0.9316724,-0.2548778
6341,0.9865541,0.9510047,-0.2579304
6343,0.9865541,0.9510047,-0.2579304
6345,1.054805,1.020675,-0.2646699
6348,1.075564,1.041362,-0.2676108
6350,1.075564,1.041362,-0.2676108
6352,1.109241,1.0752,-0.2719625
6355,1.109241,1.0752,-0.2719625
6358,1.106768,1.072284,-0.272681
6360,1.105353,1.070823,-0.272681
6363,1.105353,1.070823,-0.272681
6365,1.100385,1.065327,-0.2733977
6367,1.100385,1.065327,-0.2733977
6369,1.097179,1.061831,-0.2741124
6372,1.097179,1.061831,-0.2741124
6374,1.105353,1.070092,-0.2762456
6376,1.105353,1.070092,-0.2762456
6379,1.105353,1.070092,-0.2762456
6381,1.118201,1.08372,-0.276953
6383,1.118201,1.08372,-0.276953
6386,1.130039,1.096108,-0.2776587
6388,1.130039,1.096108,-0.2776587
6390,1.140381,1.107122,-0.2783625
6393,1.129346,1.095573,-0.2783625
6395,1.129346,1.095573,-0.2783625
6397,1.126222,1.092711,-0.2783625
6401,1.126222,1.092711,-0.2783625
6403,1.084623,1.052391,-0.2697954
6405,1.069909,1.03854,-0.2661444
6408,1.069909,1.03854,-0.2661444
6410,1.021442,0.9915005,-0.2548778
6412,1.021442,0.9915005,-0.2548778
6415,1.003662,0.9745807,-0.25101
6417,1.003662,0.9745807,-0.25101
6419,0.9769872,0.948326,-0.2462884
6422,0.9074132,0.8784871,-0.2365626
6424,0.9074132,0.8784871,-0.2365626
6426,0.867955,0.8388348,-0.23239
6429,0.867955,0.8388348,-0.23239
6431,0.8096339,0.7783349,-0.2281412
6433,0.7875819,0.7551107,-0.2281412
6436,0.7875819,0.7551107,-0.2281412
6438,0.7687222,0.7351527,-0.2281412
6440,0.7687222,0.7351527,-0.2281412
6444,0.7694854,0.7327532,-0.2349025
6446,0.7694854,0.7327532,-0.2349025
6448,0.7682129,0.7306137,-0.2365626
6450,0.7954926,0.7558876,-0.2462884
6453,0.7954926,0.7558876,-0.2462884
6455,0.8047857,0.7641266,-0.249446
6457,0.8047857,0.7641266,-0.249446
6460,0.7974581,0.7462481,-0.276953
6462,0.7940154,0.7386047,-0.2873554
6464,0.7940154,0.7386047,-0.2873554
6467,0.8218675,0.7656615,-0.2947506
6469,0.8218675,0.7656615,-0.2947506
6471,0.8318071,0.7750598,-0.2973941
6474,0.8318071,0.7750598,-0.2973941
6476,0.8513383,0.7954926,-0.2980514
6478,0.8798226,0.8256681,-0.3000144
6481,0.8798226,0.8256681,-0.3000144
6483,0.8943809,0.8411642,-0.3000144
6486,0.8943809,0.8411642,-0.3000144
6489,0.9157847,0.8636609,-0.3000144
6491,0.9157847,0.8636609,-0.3000144
6493,0.9291486,0.8775957,-0.3006659
6496,0.9485323,0.8980926,-0.301316
6498,0.9485323,0.8980926,-0.301316
6500,0.9565441,0.9069818,-0.3000144
6503,0.9565441,0.9069818,-0.3000144
6505,0.9683364,0.9196228,-0.2987072
6507,0.9739782,0.9261956,-0.2973941
6510,0.9739782,0.9261956,-0.2973941
6512,0.9825793,0.9354453,-0.2960753
6514,0.9825793,0.9354453,-0.2960753
6517,0.9837734,0.9369085,-0.2960753
6519,0.9837734,0.9369085,-0.2960753
6521,0.985562,0.9389946,-0.2947506
6524,0.9885356,0.9425307,-0.2940859
6526,0.9885356,0.9425307,-0.2940859
6529,0.9932752,0.9477068,-0.2920831
6532,0.9932752,0.9477068,-0.2920831
6534,0.9865541,0.9416999,-0.2900664
6536,0.9763861,0.9318824,-0.2866737
6538,0.9763861,0.9318824,-0.2866737
6541,0.9675278,0.923233,-0.2846186
6543,0.9675278,0.923233,-0.2846186
6545,0.9600154,0.9157847,-0.2832403
6548,0.9600154,0.9157847,-0.2832403
6550,0.9481196,0.9043891,-0.2811602
6552,0.9435682,0.899399,-0.2797648
6555,0.9435682,0.899399,-0.2797648
6557,0.9375348,0.8937243,-0.2790645
6559,0.9375348,0.8937243,-0.2790645
6562,0.9289381,0.8851442,-0.2783625
6564,0.9289381,0.8851442,-0.2783625
6566,0.9255615,0.8818219,-0.2776587
6569,0.9375348,0.8932863,-0.2804634
6572,0.9375348,0.8932863,-0.2804634
6574,0.9448116,0.9002688,-0.2825486
6577,0.9448116,0.9002688,-0.2825486
6579,0.9553158,0.9104272,-0.2853053
6581,0.9624583,0.9177057,-0.2853053
6584,0.9624583,0.9177057,-0.2853053
6586,0.9725708,0.9283059,-0.2853053
6588,0.9725708,0.9283059,-0.2853053
6591,0.9759852,0.9318824,-0.2853053
6593,0.9759852,0.9318824,-0.2853053
6595,0.9851648,0.9408684,-0.2887141
6598,0.9883377,0.9437756,-0.2887141
6600,0.9883377,0.9437756,-0.2887141
6602,0.9799869,0.9360726,-0.2859903
6605,0.9799869,0.9360726,-0.2859903
6607,0.9767869,0.9329317,-0.2846186
6609,0.9749822,0.930832,-0.2859903
6612,0.9749822,0.930832,-0.2859903
6615,0.9745807,0.930201,-0.2866737
6617,0.9745807,0.930201,-0.2866737
6620,0.9751828,0.9304113,-0.2887141
6622,0.9751828,0.9304113,-0.2887141
6624,0.9909081,0.9456397,-0.2914124
6626,1.003272,0.957975,-0.2940859
6629,1.003272,0.957975,-0.2940859
6631,1.023929,0.9781881,-0.2973941
6633,1.023929,0.9781881,-0.2973941
6636,1.032303,0.9867525,-0.2993615
6638,1.046611,1.000929,-0.301316
6640,1.046611,1.000929,-0.301316
6643,1.052763,1.006971,-0.302612
6645,1.052763,1.006971,-0.302612
6647,1.057954,1.012204,-0.302612
6650,1.057954,1.012204,-0.302612
6652,1.076473,1.031924,-0.301316
6654,1.08354,1.03967,-0.301316
6658,1.08354,1.03967,-0.301316
6660,1.107828,1.063673,-0.3058279
6662,1.107828,1.063673,-0.3058279
6665,1.117501,1.073379,-0.3077414
6667,1.117501,1.073379,-0.3077414
6669,1.120823,1.077382,-0.3064671
6672,1.122916,1.079559,-0.3058279
6674,1.122916,1.079559,-0.3058279
6676,1.129865,1.085705,-0.309643
6679,1.129865,1.085705,-0.309643
6681,1.133151,1.088764,-0.3102743
6683,1.127612,1.08354,-0.309643
6686,1.127612,1.08354,-0.309643
6688,1.121172,1.076837,-0.3083766
6690,1.121172,1.076837,-0.3083766
6693,1.120299,1.0752,-0.311533
6695,1.120299,1.0752,-0.311533
6697,1.11995,1.074108,-0.3134116
6701,1.087505,1.03722,-0.3232465
6703,1.087505,1.03722,-0.3232465
6705,1.040046,0.9825793,-0.3363003
6708,1.040046,0.9825793,-0.3363003
6710,1.030216,0.9725708,-0.3351346
6712,1.0151,0.9569532,-0.3339648
6714,1.0151,0.9569532,-0.3339648
6717,0.990118,0.9278842,-0.3403488
6719,0.990118,0.9278842,-0.3403488
6721,0.9524438,0.8833739,-0.3511023
6724,0.9524438,0.8833739,-0.3511023
6726,0.9312522,0.857978,-0.3577275
6728,0.9136455,0.8362648,-0.3642322
6731,0.9136455,0.8362648,-0.3642322
6733,0.8677295,0.7818466,-0.3727285
6735,0.8677295,0.7818466,-0.3727285
6738,0.8499581,0.7602757,-0.3763854
6740,0.8374339,0.7415132,-0.3861367
6743,0.8374339,0.7415132,-0.3861367
6746,0.839068,0.7404569,-0.3911712
6748,0.839068,0.7404569,-0.3911712
6750,0.8586619,0.7641266,-0.3876539
6753,0.8586619,0.7641266,-0.3876539
6755,0.8737969,0.7843454,-0.3810355
6757,0.8751395,0.7890712,-0.3748225
6760,0.8751395,0.7890712,-0.3748225
6762,0.8659236,0.7788376,-0.373777
6764,0.8659236,0.7788376,-0.373777
6767,0.864793,0.7825971,-0.3642322
6769,0.864793,0.7825971,-0.3642322
6771,0.8704314,0.7922885,-0.3560827
6774,0.8588898,0.7855918,-0.3426407
6776,0.8588898,0.7855918,-0.3426407
6778,0.8400003,0.7737964,-0.3226406
6781,0.8400003,0.7737964,-0.3226406
6784,0.8364988,0.7735435,-0.3140353
6786,0.8294513,0.7715172,-0.3000144
6789,0.8294513,0.7715172,-0.3000144
6791,0.8327476,0.7760689,-0.2980514
6793,0.8327476,0.7760689,-0.2980514
6796,0.835094,0.7793398,-0.2954137
6798,0.835094,0.7793398,-0.2954137
6800,0.8266156,0.7722777,-0.289391
6802,0.81781,0.7646385,-0.2859903
6805,0.81781,0.7646385,-0.2859903
6807,0.8127698,0.7602757,-0.2832403
6809,0.8127698,0.7602757,-0.2832403
6812,0.8139727,0.7618184,-0.2825486
6814,0.8151737,0.7646385,-0.2776587
6816,0.8151737,0.7646385,-0.2776587
6819,0.8149337,0.7659171,-0.2733977
6821,0.8149337,0.7659171,-0.2733977
6823,0.8175707,0.7717707,-0.2668786
6827,0.8175707,0.7717707,-0.2668786
6829,0.8201992,0.7753122,-0.2639296
6831,0.8249568,0.7825971,-0.2579304
6834,0.8249568,0.7825971,-0.2579304
6836,0.8273254,0.7858408,-0.2556444
6838,0.8273254,0.7858408,-0.2556444
6841,0.8285072,0.7880787,-0.2533378
6843,0.8285072,0.7880787,-0.2533378
6845,0.8221055,0.7800927,-0.2564087
6848,0.8187665,0.7763211,-0.2579304
6850,0.8187665,0.7763211,-0.2579304
6852,0.8127698,0.7710097,-0.2548778
6855,0.8127698,0.7710097,-0.2548778
6857,0.8096339,0.7684676,-0.254109
6859,0.7470343,0.7044336,-0.2438933
6862,0.7470343,0.7044336,-0.2438933
6864,0.7225344,0.6795497,-0.2406627
6866,0.7225344,0.6795497,-0.2406627
6870,0.7135413,0.6702721,-0.2414744
6872,0.7135413,0.6702721,-0.2414744
6874,0.7088641,0.6652907,-0.2414744
6877,0.7281993,0.6852845,-0.2430897
6879,0.7281993,0.6852845,-0.2430897
6881,0.7340872,0.6918207,-0.2438933
6884,0.7340872,0.6918207,-0.2438933
6886,0.7268545,0.6847132,-0.2430897
6888,0.7069291,0.6649964,-0.2414744
6890,0.7069291,0.6649964,-0.2414744
6893,0.6954879,0.65342,-0.2398483
6895,0.6954879,0.65342,-0.2398483
6897,0.6760855,0.6342734,-0.2382111
6900,0.6760855,0.6342734,-0.2382111
6902,0.6818494,0.6404136,-0.2382111
6904,0.6801254,0.6391903,-0.2373883
6907,0.6801254,0.6391903,-0.2373883
6909,0.6749268,0.6345818,-0.235734
6912,0.6749268,0.6345818,-0.235734
6915,0.6818494,0.6416347,-0.2382111
6917,0.6906884,0.6504185,-0.2398483
6919,0.6906884,0.6504185,-0.2398483
6922,0.7022079,0.6617518,-0.2422834
6924,0.7022079,0.6617518,-0.2422834
6926,0.7132671,0.6723125,-0.2454926
6929,0.7132671,0.6723125,-0.2454926
6931,0.7343537,0.6929511,-0.25101
6933,0.7444103,0.7027649,-0.254109
6936,0.7444103,0.7027649,-0.254109
6938,0.7576976,0.7160051,-0.2571706
6940,0.7576976,0.7160051,-0.2571706
6943,0.7576976,0.7143636,-0.2624426
6945,0.7576976,0.7143636,-0.2624426
6947,0.7571809,0.7127182,-0.2661444
6950,0.776825,0.7292733,-0.2790645
6952,0.776825,0.7292733,-0.2790645
6955,0.7835966,0.7351527,-0.2839303
6958,0.7835966,0.7351527,-0.2839303
6960,0.7530347,0.7055438,-0.276953
6962,0.7412493,0.6943616,-0.2733977
6965,0.7412493,0.6943616,-0.2733977
6967,0.7149112,0.6685182,-0.2668786
6969,0.7149112,0.6685182,-0.2668786
6972,0.7044336,0.6584912,-0.2646699
6974,0.7044336,0.6584912,-0.2646699
6976,0.6760855,0.6311808,-0.2579304
6978,0.6649964,0.6202354,-0.254109
6981,0.6649964,0.6202354,-0.254109
6983,0.6382713,0.5947903,-0.2470816
6985,0.6382713,0.5947903,-0.2470816
6988,0.628073,0.5848376,-0.2446942
6990,0.6348901,0.5891711,-0.2517883
6992,0.6348901,0.5891711,-0.2517883
6995,0.6370438,0.5901666,-0.2548778
6998,0.6370438,0.5901666,-0.2548778
7000,0.6467983,0.6003569,-0.2556444
7003,0.6543178,0.607807,-0.2556444
7005,0.6599753,0.6138933,-0.2564087
7007,0.660568,0.6135744,-0.2579304
7010,0.660568,0.6135744,-0.2579304
7012,0.6602717,0.6122975,-0.2594432
7014,0.6602717,0.6122975,-0.2594432
7017,0.6474031,0.5983981,-0.2601963
7019,0.6271377,0.5764125,-0.2601963
7021,0.6271377,0.5764125,-0.2601963
7024,0.6474031,0.5957764,-0.2646699
7026,0.6474031,0.5957764,-0.2646699
7028,0.6769533,0.6246366,-0.2697954
7031,0.6769533,0.6246366,-0.2697954
7033,0.6935157,0.6404136,-0.2755364
7035,0.7179157,0.6632286,-0.2832403
7038,0.7179157,0.6632286,-0.2832403
7041,0.7116191,0.6555129,-0.2846186
7043,0.7116191,0.6555129,-0.2846186
7046,0.7019292,0.6443735,-0.2846186
7048,0.7019292,0.6443735,-0.2846186
7050,0.6940797,0.6373509,-0.2818553
7053,0.6821364,0.6262009,-0.2776587
7055,0.6821364,0.6262009,-0.2776587
7057,0.6783969,0.6230683,-0.2762456
7059,0.6783969,0.6230683,-0.2762456
7062,0.6749268,0.6199199,-0.2741124
7064,0.66998,0.6158028,-0.2712421
7066,0.66998,0.6158028,-0.2712421
7069,0.6679325,0.6145305,-0.2690692
7071,0.6679325,0.6145305,-0.2690692
7073,0.680988,0.629007,-0.268341
7076,0.680988,0.629007,-0.268341
7078,0.6935157,0.6422443,-0.268341
7080,0.7206361,0.6705639,-0.2690692
7084,0.7206361,0.6705639,-0.2690692
7086,0.7351527,0.6858553,-0.2697954
7088,0.7351527,0.6858553,-0.2697954
7091,0.7459858,0.6977351,-0.2690692
7093,0.745461,0.6977351,-0.268341
7095,0.745461,0.6977351,-0.268341
7098,0.7538139,0.7069291,-0.2668786
7100,0.7538139,0.7069291,-0.2668786
7102,0.7610474,0.7146374,-0.2676108
7105,0.7610474,0.7146374,-0.2676108
7107,0.7636142,0.7173703,-0.2668786
7109,0.760533,0.7146374,-0.2661444
7112,0.760533,0.7146374,-0.2661444
7114,0.7467723,0.7013714,-0.261696
7116,0.7467723,0.7013714,-0.261696
7119,0.7380747,0.6932335,-0.2586879
7121,0.7380747,0.6932335,-0.2586879
7123,0.7478197,0.7047113,-0.254109
7127,0.762332,0.7200928,-0.2517883
7129,0.762332,0.7200928,-0.2517883
7131,0.7905577,0.7506924,-0.2470816
7134,0.7905577,0.7506924,-0.2470816
7136,0.8038125,0.7648944,-0.2454926
7138,0.8273254,0.7900625,-0.2414744
7141,0.8273254,0.7900625,-0.2414744
7143,0.8374339,0.8013745,-0.2398483
7145,0.8374339,0.8013745,-0.2398483
7147,0.8531751,0.8187665,-0.2365626
7150,0.8531751,0.8187665,-0.2365626
7152,0.8595729,0.8256681,-0.235734
7154,0.8652454,0.8320423,-0.2349025
7157,0.8652454,0.8320423,-0.2349025
7159,0.8737969,0.8411642,-0.2332305
7161,0.8737969,0.8411642,-0.2332305
7164,0.8778186,0.8453411,-0.23239
7166,0.848345,0.8166127,-0.2255535
7169,0.848345,0.8166127,-0.2255535
7172,0.8376676,0.8064859,-0.2229358
7174,0.8376676,0.8064859,-0.2229358
7176,0.840466,0.8093922,-0.2220564
7179,0.840466,0.8093922,-0.2220564
7181,0.8416294,0.8106001,-0.2220564
7183,0.8497278,0.8190054,-0.2229358
7186,0.8497278,0.8190054,-0.2229358
7188,0.8531751,0.8223435,-0.2238118
7190,0.8531751,0.8223435,-0.2238118
7193,0.8570652,0.826142,-0.2238118
7195,0.8636609,0.8327476,-0.2255535
7197,0.8636609,0.8327476,-0.2255535
7200,0.8591176,0.8270888,-0.2281412
7202,0.8591176,0.8270888,-0.2281412
7204,0.8524867,0.8192443,-0.2315465
7207,0.8524867,0.8192443,-0.2315465
7209,0.8462666,0.8122882,-0.234068
7212,0.8374339,0.8025945,-0.2365626
7215,0.8374339,0.8025945,-0.2365626
7217,0.8327476,0.7972127,-0.2382111
7219,0.8327476,0.7972127,-0.2382111
7222,0.8263788,0.7895671,-0.2422834
7224,0.8263788,0.7895671,-0.2422834
7226,0.8263788,0.7893192,-0.2438933
7229,0.8270888,0.7893192,-0.2470816
7231,0.8270888,0.7893192,-0.2470816
7233,0.828271,0.7900625,-0.2486604
7235,0.828271,0.7900625,-0.2486604
7238,0.8289794,0.7905577,-0.249446
7240,0.8289794,0.7900625,-0.2517883
7242,0.8289794,0.7900625,-0.2517883
7245,0.8277984,0.7890712,-0.2517883
7247,0.8277984,0.7890712,-0.2517883
7249,0.8235324,0.7840959,-0.2517883
7252,0.8235324,0.7840959,-0.2517883
7255,0.8201992,0.7805943,-0.25101
7257,0.8275619,0.7888232,-0.2486604
7260,0.8275619,0.7888232,-0.2486604
7262,0.8362648,0.7979487,-0.2478722
7264,0.8362648,0.7979487,-0.2478722
7267,0.839068,0.8074558,-0.2255535
7269,0.840466,0.8110828,-0.2185032
7271,0.840466,0.8110828,-0.2185032
7274,0.8418618,0.8146936,-0.2112177
7276,0.8418618,0.8146936,-0.2112177
7278,0.8313365,0.8047857,-0.2055842
7281,0.8313365,0.8047857,-0.2055842
7283,0.840466,0.8161334,-0.199792
7285,0.840466,0.8161334,-0.199792
7288,0.840466,0.8161334,-0.199792
7290,0.8520276,0.8273254,-0.2007689
7292,0.8520276,0.8273254,-0.2007689
7296,0.8616194,0.8369665,-0.2007689
7298,0.8697567,0.8453411,-0.2007689
7300,0.8570652,0.8320423,-0.2027088
7303,0.8469599,0.8213912,-0.2027088
7305,0.8469599,0.8213912,-0.2027088
7307,0.8127698,0.7858408,-0.2036718
7310,0.8127698,0.7858408,-0.2036718
7312,0.7920414,0.7638705,-0.2055842
7314,0.7699938,0.7407211,-0.2093567
7317,0.7699938,0.7407211,-0.2093567
7319,0.7659171,0.7359507,-0.2112177
7321,0.7659171,0.7359507,-0.2112177
7323,0.7574393,0.7265852,-0.2121421
7326,0.7574393,0.7265852,-0.2121421
7328,0.7525149,0.7219925,-0.2112177
7330,0.7631016,0.733287,-0.2102893
7333,0.7631016,0.733287,-0.2102893
7335,0.7748073,0.745461,-0.2093567
7337,0.7748073,0.745461,-0.2093567
7341,0.7843454,0.7551107,-0.20842
7343,0.7994187,0.7699938,-0.2121421
7345,0.7994187,0.7699938,-0.2121421
7348,0.8047857,0.7753122,-0.2139789
7350,0.8047857,0.7753122,-0.2139789
7352,0.8127698,0.7828471,-0.2148914
7355,0.8127698,0.7828471,-0.2148914
7357,0.8154138,0.7858408,-0.2158
7359,0.8011303,0.7682129,-0.2264194
7362,0.8011303,0.7682129,-0.2264194
7364,0.7957386,0.7615615,-0.2306999
7366,0.7957386,0.7615615,-0.2306999
7369,0.7674484,0.7335538,-0.2264194
7371,0.7569224,0.7230757,-0.2255535
7373,0.7569224,0.7230757,-0.2255535
7376,0.7399282,0.7041557,-0.2306999
7378,0.7399282,0.7041557,-0.2306999
7380,0.733287,0.697174,-0.2332305
7384,0.733287,0.697174,-0.2332305
7386,0.7265852,0.6898379,-0.2315465
7388,0.7157319,0.6789736,-0.2289973
7391,0.7157319,0.6789736,-0.2289973
7393,0.6872803,0.6483091,-0.23239
7395,0.6872803,0.6483091,-0.23239
7398,0.6443735,0.6006827,-0.2365626
7400,0.6443735,0.6006827,-0.2365626
7402,0.6324196,0.5901666,-0.2306999
7405,0.6135744,0.5730078,-0.2220564
7407,0.6135744,0.5730078,-0.2220564
7409,0.6090934,0.5702693,-0.2176059
7411,0.6090934,0.5702693,-0.2176059
7414,0.6010084,0.5647526,-0.2102893
7416,0.5997046,0.5647526,-0.2065338
7418,0.5997046,0.5647526,-0.2065338
7421,0.5977437,0.5637122,-0.2036718
7424,0.598071,0.5654452,-0.2007689
7426,0.5977437,0.5657911,-0.1978235
7429,0.5977437,0.5657911,-0.1978235
7431,0.5970887,0.5657911,-0.1958353
7433,0.5983981,0.5678623,-0.1928145
7436,0.5983981,0.5678623,-0.1928145
7438,0.5983981,0.5688952,-0.1897456
7440,0.5983981,0.5688952,-0.1897456
7443,0.5983981,0.5699261,-0.1887116
7445,0.5983981,0.5699261,-0.1887116
7447,0.5983981,0.5699261,-0.1887116
7450,0.6013339,0.5730078,-0.1887116
7452,0.6013339,0.5730078,-0.1887116
7454,0.6016592,0.5733491,-0.1887116
7457,0.6016592,0.5733491,-0.1887116
7459,0.6026341,0.5743721,-0.1897456
7461,0.6029587,0.5743721,-0.1897456
7464,0.6029587,0.5743721,-0.1897456
7467,0.6036074,0.575053,-0.1907741
7469,0.6036074,0.575053,-0.1907741
7472,0.6032831,0.5747126,-0.191797
7474,0.6049027,0.575053,-0.1928145
7476,0.6049027,0.575053,-0.1928145
7479,0.605226,0.5760729,-0.1938267
7481,0.605226,0.5760729,-0.1938267
7483,0.607807,0.5777687,-0.1958353
7486,0.607807,0.5777687,-0.1958353
7488,0.6097356,0.5794597,-0.1968319
7490,0.6158028,0.5851721,-0.1988102
7493,0.6158028,0.5851721,-0.1988102
7495,0.6170725,0.5865081,-0.199792
7497,0.6170725,0.5865081,-0.199792
7499,0.6170725,0.5865081,-0.199792
7502,0.6170725,0.5865081,-0.199792
7504,0.6170725,0.5861744,-0.2017412
7506,0.6221254,0.5911604,-0.2007689
7510,0.6221254,0.5911604,-0.2007689
7512,0.6252628,0.5954478,-0.199792
7514,0.6252628,0.5954478,-0.199792
7517,0.6268256,0.5964329,-0.2017412
7519,0.6277614,0.5967609,-0.2036718
7521,0.6277614,0.5967609,-0.2036718
7524,0.6324196,0.6010084,-0.2036718
7526,0.6324196,0.6010084,-0.2036718
7528,0.6348901,0.6049027,-0.2046302
7531,0.6348901,0.6049027,-0.2046302
7533,0.6404136,0.6097356,-0.2055842
7535,0.6425489,0.6122975,-0.2055842
7538,0.6425489,0.6122975,-0.2055842
7540,0.6440698,0.6138933,-0.2055842
7542,0.6440698,0.6138933,-0.2055842
7545,0.6483091,0.6170725,-0.2065338
7547,0.6611602,0.6299395,-0.20842
7549,0.6611602,0.6299395,-0.20842
7553,0.6720214,0.6404136,-0.2102893
7555,0.6720214,0.6404136,-0.2102893
7557,0.6807005,0.6489125,-0.2112177
7560,0.6807005,0.6489125,-0.2112177
7562,0.6849989,0.652521,-0.2139789
7564,0.6824232,0.6498165,-0.2139789
7567,0.6824232,0.6498165,-0.2139789
7569,0.680413,0.6477052,-0.2139789
7571,0.680413,0.6477052,-0.2139789
7574,0.6752167,0.6422443,-0.2139789
7576,0.6752167,0.6422443,-0.2139789
7578,0.6728944,0.640108,-0.2139789
7581,0.6708556,0.6379647,-0.2139789
7583,0.6708556,0.6379647,-0.2139789
7585,0.66998,0.6364292,-0.2148914
7587,0.6685182,0.6355062,-0.2148914
7590,0.6705639,0.6370438,-0.2158
7592,0.6728944,0.6382713,-0.2176059
7595,0.6728944,0.6382713,-0.2176059
7598,0.6743467,0.6394964,-0.2176059
7600,0.6743467,0.6394964,-0.2176059
7602,0.6755064,0.640108,-0.2220564
7605,0.6755064,0.640108,-0.2220564
7607,0.6760855,0.640108,-0.2229358
7609,0.6740565,0.6373509,-0.2238118
7612,0.6740565,0.6373509,-0.2238118
7614,0.6734757,0.6364292,-0.2255535
7616,0.6734757,0.6364292,-0.2255535
7619,0.6714388,0.6339648,-0.2264194
7621,0.6696879,0.6321102,-0.2272819
7623,0.6696879,0.6321102,-0.2272819
7626,0.661456,0.6221254,-0.2315465
7628,0.661456,0.6221254,-0.2315465
7630,0.6584912,0.618656,-0.2332305
7633,0.6584912,0.618656,-0.2332305
7635,0.659382,0.6196041,-0.2332305
7638,0.660568,0.6202354,-0.2332305
7641,0.660568,0.6202354,-0.2332305
7643,0.667053,0.629007,-0.23239
7645,0.667053,0.629007,-0.23239
7648,0.6702721,0.6318005,-0.2315465
7650,0.6726035,0.6345818,-0.2298502
7652,0.6726035,0.6345818,-0.2298502
7655,0.6734757,0.6361217,-0.2289973
7657,0.6734757,0.6361217,-0.2289973
7659,0.6760855,0.6394964,-0.2281412
7662,0.6760855,0.6394964,-0.2281412
7664,0.680413,0.6449805,-0.2264194
7666,0.6812752,0.6464956,-0.2255535
7668,0.6812752,0.6464956,-0.2255535
7671,0.6824232,0.6477052,-0.2246844
7673,0.6824232,0.6477052,-0.2246844
7675,0.6861406,0.652221,-0.2246844
7678,0.6861406,0.652221,-0.2246844
7681,0.687565,0.65342,-0.2238118
7683,0.6872803,0.65342,-0.2229358
7686,0.6872803,0.65342,-0.2229358
7688,0.6861406,0.65342,-0.2220564
7690,0.6861406,0.65342,-0.2220564
7693,0.6872803,0.6546168,-0.2229358
7695,0.6878495,0.6549156,-0.2211734
7697,0.6878495,0.6549156,-0.2211734
7700,0.6923862,0.6602717,-0.2185032
7702,0.6923862,0.6602717,-0.2185032
7704,0.6954879,0.6641131,-0.2158
7707,0.6954879,0.6641131,-0.2158
7709,0.6858553,0.6564078,-0.2112177
7711,0.6783969,0.6498165,-0.2074791
7714,0.6783969,0.6498165,-0.2074791
7716,0.6555129,0.6277614,-0.2046302
7718,0.6555129,0.6277614,-0.2046302
7721,0.6419396,0.614212,-0.2046302
7724,0.6471007,0.6192883,-0.2027088
7726,0.6471007,0.6192883,-0.2027088
7729,0.6489125,0.6211812,-0.2007689
7731,0.6489125,0.6211812,-0.2007689
7733,0.6516207,0.6236961,-0.2007689
7736,0.6516207,0.6236961,-0.2007689
7738,0.6558113,0.6274496,-0.2007689
7740,0.645587,0.6167554,-0.2007689
7743,0.645587,0.6167554,-0.2007689
7745,0.6367366,0.6081289,-0.1988102
7747,0.6367366,0.6081289,-0.1988102
7750,0.6321102,0.6032831,-0.199792
7752,0.6321102,0.6032831,-0.199792
7754,0.6345818,0.6058724,-0.199792
7756,0.6382713,0.6090934,-0.2007689
7759,0.6382713,0.6090934,-0.2007689
7761,0.6431577,0.6135744,-0.2017412
7763,0.6431577,0.6135744,-0.2017412
7767,0.6467983,0.6167554,-0.2027088
7769,0.6516207,0.6208661,-0.2027088
7771,0.6516207,0.6208661,-0.2027088
7774,0.6664661,0.635814,-0.2046302
7776,0.6664661,0.635814,-0.2046302
7778,0.6889865,0.6573014,-0.2074791
7781,0.6889865,0.6573014,-0.2074791
7783,0.7027649,0.6714388,-0.2093567
7785,0.7230757,0.6915378,-0.2130625
7788,0.7230757,0.6915378,-0.2130625
7790,0.7324861,0.7008132,-0.2139789
7792,0.7324861,0.7008132,-0.2139789
7795,0.7465102,0.7143636,-0.2158
7797,0.7532945,0.721179,-0.2167048
7799,0.7532945,0.721179,-0.2167048
7802,0.7633579,0.7308815,-0.2185032
7804,0.7633579,0.7308815,-0.2185032
7806,0.7666831,0.7338206,-0.220287
7810,0.7666831,0.7338206,-0.220287
7812,0.7715172,0.7386047,-0.2220564
7814,0.7735435,0.7399282,-0.2238118
7817,0.7735435,0.7399282,-0.2238118
7819,0.7750598,0.7409853,-0.2246844
7821,0.7750598,0.7409853,-0.2246844
7824,0.7790887,0.7444103,-0.2272819
7826,0.7815963,0.7465102,-0.2289973
7828,0.7815963,0.7465102,-0.2289973
7831,0.7828471,0.7462481,-0.2349025
7833,0.7828471,0.7462481,-0.2349025
7835,0.7820969,0.7444103,-0.2390311
7838,0.7820969,0.7444103,-0.2390311
7840,0.7810954,0.7423044,-0.2430897
7842,0.7810954,0.7420408,-0.2446942
7844,0.7810954,0.7420408,-0.2446942
7847,0.7825971,0.7433581,-0.2454926
7849,0.7825971,0.7433581,-0.2454926
7852,0.7840959,0.7451985,-0.2446942
7855,0.7840959,0.7451985,-0.2446942
7857,0.7855918,0.7467723,-0.2438933
7859,0.7858408,0.7472962,-0.2422834
7862,0.7858408,0.7472962,-0.2422834
7864,0.7855918,0.7472962,-0.2414744
7866,0.7855918,0.7472962,-0.2414744
7869,0.7888232,0.7499101,-0.2438933
7871,0.7898148,0.7506924,-0.2454926
7873,0.7898148,0.7506924,-0.2454926
7876,0.7682129,0.7295417,-0.2398483
7878,0.7682129,0.7295417,-0.2398483
7880,0.7600183,0.7214502,-0.2382111
7883,0.7600183,0.7214502,-0.2382111
7885,0.7535542,0.7146374,-0.2414744
7887,0.7509531,0.7116191,-0.2430897
7890,0.7509531,0.7116191,-0.2430897
7892,0.7615615,0.7228051,-0.2430897
7895,0.7615615,0.7228051,-0.2430897
7898,0.7651502,0.7260464,-0.2422834
7900,0.7732905,0.7343537,-0.2438933
7902,0.7732905,0.7343537,-0.2438933
7905,0.7843454,0.745461,-0.2446942
7907,0.7843454,0.745461,-0.2446942
7909,0.7880787,0.7491269,-0.2462884
7912,0.7880787,0.7491269,-0.2462884
7914,0.7967216,0.758472,-0.2446942
7916,0.7940154,0.7551107,-0.2470816
7919,0.7940154,0.7551107,-0.2470816
7921,0.7890712,0.749649,-0.249446
7923,0.7890712,0.749649,-0.249446
7926,0.7845948,0.7446731,-0.2517883
7928,0.7805943,0.7404569,-0.2533378
7930,0.7805943,0.7404569,-0.2533378
7932,0.7758168,0.7340872,-0.2586879
7936,0.7758168,0.7340872,-0.2586879
7938,0.7735435,0.7316842,-0.261696
7940,0.7735435,0.7316842,-0.261696
7943,0.7735435,0.7311491,-0.2624426
7945,0.774302,0.7322189,-0.2631872
7947,0.774302,0.7322189,-0.2631872
7950,0.7745547,0.7324861,-0.2646699
7952,0.7745547,0.7324861,-0.2646699
7954,0.7740492,0.7308815,-0.2661444
7957,0.7740492,0.7308815,-0.2661444
7959,0.7564052,0.7105184,-0.2712421
7961,0.749649,0.7024865,-0.2733977
7964,0.749649,0.7024865,-0.2733977
7966,0.7551107,0.7083117,-0.2733977
7968,0.7551107,0.7083117,-0.2733977
7971,0.7564052,0.7096917,-0.2741124
7973,0.7396637,0.6909717,-0.2755364
7975,0.7396637,0.6909717,-0.2755364
7979,0.7327532,0.6835691,-0.276953
7981,0.7327532,0.6835691,-0.276953
7983,0.7260464,0.6763749,-0.2748253
7986,0.7260464,0.6763749,-0.2748253
7988,0.7228051,0.6731851,-0.2748253
7990,0.7263159,0.6766641,-0.2755364
7993,0.7263159,0.6766641,-0.2755364
7995,0.7311491,0.6812752,-0.276953
7997,0.7311491,0.6812752,-0.276953
8000,0.7343537,0.6844273,-0.2776587
8002,0.7467723,0.6968932,-0.2790645
8004,0.7467723,0.6968932,-0.2790645
8007,0.7504317,0.7002546,-0.2797648
8009,0.7504317,0.7002546,-0.2797648
8011,0.7499101,0.7016503,-0.2762456
8014,0.7499101,0.7016503,-0.2762456
8016,0.7553698,0.707759,-0.276953
8018,0.7625886,0.7146374,-0.2783625
8020,0.7625886,0.7146374,-0.2783625
8024,0.7643827,0.7165515,-0.2783625
8026,0.7643827,0.7165515,-0.2783625
8028,0.7656615,0.7181882,-0.2797648
8031,0.7656615,0.7181882,-0.2797648
8033,0.7732905,0.7255072,-0.2804634
8035,0.7788376,0.7311491,-0.2818553
8038,0.7788376,0.7311491,-0.2818553
8040,0.7895671,0.741777,-0.2839303
8042,0.7895671,0.741777,-0.2839303
8045,0.7947544,0.7462481,-0.2853053
8047,0.804056,0.7538139,-0.2907402
8049,0.804056,0.7538139,-0.2907402
