time,turnedAngle,pitchAngle,yawAngle
39,0,0,0
207239,0,0,0
207230,0,0,0
207234,0,0,0
207236,0,0,0
207239,0.5993783,0.5993783,0
0,0.6173896,0.6177064,-0.01978234
1,0.6321102,0.6333472,-0.02797646
2,0.6321102,0.6333472,-0.02797646
4,0.6277614,0.6286958,-0.01978234
5,0.6277614,0.6286958,-0.01978234
7,0.63025,0.6318005,-0.02797646
8,0.63025,0.6318005,-0.02797646
10,0.635814,0.6373509,-0.02797646
12,0.635814,0.6373509,-0.02797646
14,0.6404136,0.6425489,-0.03426402
16,0.6404136,0.6425489,-0.03426402
19,0.6305605,0.6324196,-0.02797646
21,0.6305605,0.6324196,-0.02797646
23,0.6122975,0.6135744,-0.01978234
25,0.6042554,0.605226,-0.01978234
27,0.6042554,0.605226,-0.01978234
29,0.5977437,0.598071,-0.01978234
32,0.5977437,0.598071,-0.01978234
34,0.5834977,0.5828267,-0.01978234
36,0.5834977,0.5828267,-0.01978234
38,0.5781073,0.57743,-0.01978234
40,0.5781073,0.57743,-0.01978234
43,0.5716401,0.5709552,0
46,0.5716401,0.5709552,0
48,0.5612772,0.5598809,0
50,0.5612772,0.5598809,0
52,0.5567266,0.5549665,0
54,0.5532007,0.5510744,0
56,0.5532007,0.5510744,0
58,0.5485832,0.5464389,0
61,0.5485832,0.5464389,0
63,0.5467969,0.5442861,0
65,0.5467969,0.5442861,0
67,0.563365,0.5619739,0
69,0.563365,0.5619739,0
71,0.5767518,0.5767518,0
74,0.5767518,0.5767518,0
76,0.5797972,0.5797972,-0.01978234
78,0.5797972,0.5797972,-0.01978234
80,0.5811456,0.5811456,0
82,0.57743,0.577091,0
84,0.57743,0.577091,0
88,0.5719823,0.5712977,0
90,0.5719823,0.5712977,0
92,0.5664824,0.5657911,0
94,0.5664824,0.5657911,0
96,0.5619739,0.5612772,0
98,0.5619739,0.5612772,0
100,0.5574291,0.556375,0
103,0.5574291,0.556375,0
105,0.5514293,0.5500081,0
107,0.5489398,0.5471546,-0.01978234
109,0.5489398,0.5471546,-0.01978234
112,0.5467969,0.5450047,0
114,0.5467969,0.5450047,0
116,0.5446455,0.5424856,0
118,0.5446455,0.5424856,0
121,0.5439265,0.5424856,0
123,0.5453635,0.5435666,0
125,0.5453635,0.5435666,0
128,0.5464389,0.5442861,0
131,0.5464389,0.5442861,0
133,0.5471546,0.5450047,0
135,0.5471546,0.5450047,0
137,0.5475121,0.5450047,0
140,0.5475121,0.5450047,0
142,0.5475121,0.5446455,0
144,0.5471546,0.5442861,0
146,0.5471546,0.5442861,0
149,0.5475121,0.5442861,0
151,0.5475121,0.5442861,0
153,0.5471546,0.5446455,0
155,0.5471546,0.5446455,0
158,0.5482264,0.5453635,0
160,0.5482264,0.5453635,0
162,0.5492961,0.5457222,0
164,0.5661368,0.5637122,0
166,0.5661368,0.5637122,0
169,0.591822,0.5911604,0
172,0.591822,0.5911604,0
174,0.5914913,0.5908293,0
176,0.5914913,0.5908293,0
179,0.5914913,0.5908293,0
181,0.587175,0.5858405,0
183,0.587175,0.5858405,0
185,0.5834977,0.5821548,0
188,0.5834977,0.5821548,0
190,0.5811456,0.5794597,0
192,0.5811456,0.5794597,0
194,0.6055493,0.6055493,0
197,0.6055493,0.6055493,0
199,0.6013339,0.6013339,0
201,0.5983981,0.5983981,0
203,0.5983981,0.5983981,0
206,0.5901666,0.589503,0
208,0.5901666,0.589503,0
210,0.5851721,0.5845029,0
212,0.5851721,0.5845029,0
216,0.5753932,0.5747126,0
218,0.5753932,0.5747126,0
220,0.5709552,0.5695826,0
222,0.5824909,0.5824909,-0.01978234
225,0.5824909,0.5824909,-0.01978234
227,0.5924829,0.5934729,-0.01978234
229,0.5924829,0.5934729,-0.01978234
231,0.598071,0.5993783,-0.02797646
233,0.598071,0.5993783,-0.02797646
236,0.5957764,0.5974163,-0.02797646
238,0.6061952,0.608772,-0.03426402
240,0.6061952,0.608772,-0.03426402
242,0.616438,0.6192883,-0.03956468
245,0.616438,0.6192883,-0.03956468
247,0.6258884,0.6293179,-0.03956468
249,0.6258884,0.6293179,-0.03956468
251,0.6373509,0.6410245,-0.04423466
254,0.6373509,0.6410245,-0.04423466
257,0.6379647,0.6419396,-0.04423466
259,0.6308707,0.6345818,-0.03956468
261,0.6308707,0.6345818,-0.03956468
264,0.6255757,0.629007,-0.04423466
266,0.6255757,0.629007,-0.04423466
268,0.6061952,0.6084505,-0.03426402
270,0.6061952,0.6084505,-0.03426402
273,0.5954478,0.5974163,-0.02797646
275,0.5954478,0.5974163,-0.02797646
277,0.587175,0.5881739,-0.02797646
279,0.5811456,0.5814822,-0.01978234
282,0.5740312,0.5740312,-0.01978234
284,0.5685511,0.5678623,0
286,0.5685511,0.5678623,0
288,0.5647526,0.5637122,0
291,0.5647526,0.5637122,0
293,0.5605795,0.5588315,0
295,0.57743,0.5764125,0
297,0.57743,0.5764125,0
300,0.591822,0.5911604,0
303,0.591822,0.5911604,0
305,0.6045791,0.6039315,0
307,0.6045791,0.6039315,0
309,0.6074851,0.6068404,0
312,0.6074851,0.6068404,0
314,0.614212,0.6132555,0
316,0.614212,0.612617,0
318,0.614212,0.612617,0
321,0.615167,0.6129363,0
323,0.615167,0.6129363,0
325,0.616438,0.6138933,0
327,0.616438,0.6138933,0
330,0.6202354,0.6167554,0
332,0.6224399,0.6189722,0
334,0.6224399,0.6189722,0
336,0.6243232,0.6205508,0
339,0.6243232,0.6205508,0
342,0.6243232,0.6202354,0.01978234
344,0.6243232,0.6202354,0.01978234
346,0.6249498,0.6211812,0.01978234
349,0.6249498,0.6211812,0.01978234
351,0.6561096,0.6537194,0
353,0.6685182,0.667053,0
355,0.6685182,0.667053,0
357,0.667053,0.6652907,0
360,0.667053,0.6652907,0
362,0.6661724,0.6647022,0
364,0.6661724,0.6647022,0
366,0.6584912,0.6570037,0
369,0.6584912,0.6570037,0
371,0.649214,0.6471007,0
373,0.6404136,0.6385778,0
375,0.6404136,0.6385778,0
378,0.6339648,0.6318005,0
380,0.6339648,0.6318005,0
382,0.6138933,0.6116581,0
385,0.6138933,0.6116581,0
388,0.6074851,0.605226,0
390,0.6003569,0.598071,0
392,0.6003569,0.598071,0
394,0.5951191,0.5931431,0
397,0.5951191,0.5931431,0
399,0.6026341,0.6013339,0
401,0.6026341,0.6013339,0
403,0.6122975,0.6122975,-0.01978234
406,0.6122975,0.6122975,-0.01978234
408,0.6265134,0.6277614,-0.02797646
410,0.6498165,0.652221,-0.03956468
412,0.6498165,0.652221,-0.03956468
415,0.6431577,0.6452838,-0.03956468
417,0.6431577,0.6452838,-0.03956468
419,0.6379647,0.640108,-0.03956468
421,0.6379647,0.640108,-0.03956468
423,0.6252628,0.6271377,-0.03426402
427,0.6252628,0.6271377,-0.03426402
429,0.6081289,0.6094146,-0.02797646
431,0.598725,0.6000308,-0.02797646
433,0.598725,0.6000308,-0.02797646
436,0.591822,0.5924829,-0.02797646
438,0.591822,0.5924829,-0.02797646
440,0.5834977,0.5841681,-0.01978234
442,0.5834977,0.5841681,-0.01978234
445,0.57743,0.5777687,-0.01978234
447,0.569239,0.5685511,-0.02797646
449,0.569239,0.5685511,-0.02797646
451,0.5661368,0.5654452,-0.01978234
454,0.5661368,0.5654452,-0.01978234
456,0.5637122,0.563365,0
458,0.5637122,0.563365,0
460,0.5584812,0.5574291,0
463,0.5584812,0.5574291,0
465,0.575053,0.5743721,0
467,0.5885065,0.5888388,-0.01978234
470,0.5885065,0.5888388,-0.01978234
473,0.6000308,0.6006827,-0.01978234
475,0.6000308,0.6006827,-0.01978234
477,0.6000308,0.6010084,-0.01978234
479,0.6000308,0.6010084,-0.01978234
482,0.6010084,0.6016592,-0.01978234
484,0.6010084,0.6016592,-0.01978234
486,0.590498,0.5908293,-0.01978234
488,0.5855064,0.5851721,-0.01978234
490,0.5855064,0.5851721,-0.01978234
493,0.5814822,0.5811456,-0.01978234
495,0.5814822,0.5811456,-0.01978234
497,0.5814822,0.5811456,-0.01978234
499,0.5814822,0.5811456,-0.01978234
502,0.5814822,0.5811456,-0.01978234
504,0.5767518,0.5760729,0
506,0.5767518,0.5760729,0
508,0.6006827,0.6010084,-0.01978234
512,0.6006827,0.6010084,-0.01978234
514,0.6106976,0.6116581,-0.01978234
516,0.6106976,0.6116581,-0.01978234
518,0.6081289,0.608772,-0.01978234
521,0.6081289,0.608772,-0.01978234
523,0.6177064,0.6183397,-0.01978234
525,0.6271377,0.6283845,-0.02797646
527,0.6271377,0.6283845,-0.02797646
530,0.6361217,0.6373509,-0.03426402
532,0.6361217,0.6373509,-0.03426402
534,0.6305605,0.6318005,-0.03426402
536,0.6268256,0.628073,-0.01978234
539,0.6246366,0.6255757,-0.02797646
541,0.6246366,0.6255757,-0.02797646
543,0.6180231,0.6183397,-0.02797646
545,0.6132555,0.6132555,-0.01978234
548,0.6132555,0.6132555,-0.01978234
550,0.6006827,0.6000308,0
552,0.6006827,0.6000308,0
555,0.5967609,0.5961047,-0.01978234
557,0.5967609,0.5961047,-0.01978234
560,0.590498,0.589503,0
562,0.5797972,0.5781073,0
564,0.5797972,0.5781073,0
566,0.575053,0.5733491,0
569,0.575053,0.5733491,0
571,0.5719823,0.5699261,-0.01978234
573,0.5719823,0.5699261,-0.01978234
575,0.5675176,0.5650989,0
578,0.5675176,0.5650989,0
580,0.5661368,0.5640592,0
582,0.5801346,0.5791218,0
584,0.5801346,0.5791218,0
587,0.5924829,0.5921526,-0.01978234
589,0.5924829,0.5921526,-0.01978234
591,0.6006827,0.6010084,-0.01978234
593,0.6006827,0.6010084,-0.01978234
596,0.5997046,0.6003569,-0.01978234
599,0.5944612,0.5947903,-0.01978234
601,0.5944612,0.5947903,-0.01978234
603,0.590498,0.590498,-0.01978234
606,0.590498,0.590498,-0.01978234
608,0.5818186,0.5818186,-0.01978234
610,0.5818186,0.5818186,-0.01978234
612,0.577091,0.5767518,-0.01978234
615,0.577091,0.5767518,-0.01978234
617,0.5911604,0.591822,-0.01978234
619,0.6036074,0.6045791,-0.02797646
621,0.6036074,0.6045791,-0.02797646
623,0.6318005,0.6339648,-0.03956468
626,0.6318005,0.6339648,-0.03956468
628,0.6467983,0.6495153,-0.04423466
630,0.6467983,0.6495153,-0.04423466
632,0.6623429,0.6652907,-0.04845664
635,0.6623429,0.6652907,-0.04845664
637,0.6867107,0.690405,-0.05934703
640,0.6968932,0.7005339,-0.06255726
642,0.6968932,0.7005339,-0.06255726
645,0.7058211,0.7096917,-0.0656106
647,0.7058211,0.7096917,-0.0656106
649,0.7132671,0.7170975,-0.06852804
651,0.7132671,0.7170975,-0.06852804
654,0.7257769,0.7298098,-0.07401875
656,0.7298098,0.7338206,-0.07401875
658,0.7298098,0.7338206,-0.07401875
660,0.7335538,0.7378095,-0.07661668
663,0.7335538,0.7378095,-0.07661668
665,0.7372789,0.7415132,-0.07912937
667,0.7372789,0.7415132,-0.07912937
669,0.7409853,0.745461,-0.07912937
672,0.7409853,0.745461,-0.07912937
674,0.7265852,0.7306137,-0.07401875
676,0.7121689,0.7157319,-0.06852804
678,0.7121689,0.7157319,-0.06852804
681,0.7002546,0.7038778,-0.0656106
684,0.7002546,0.7038778,-0.0656106
686,0.6977351,0.7016503,-0.06852804
688,0.6977351,0.7016503,-0.06852804
690,0.7022079,0.7063754,-0.06852804
693,0.7022079,0.7063754,-0.06852804
695,0.7060983,0.7099674,-0.07132626
697,0.7140896,0.7181882,-0.07401875
699,0.7140896,0.7181882,-0.07401875
702,0.7181882,0.7222635,-0.07401875
704,0.7181882,0.7222635,-0.07401875
706,0.7214502,0.7257769,-0.07661668
708,0.7214502,0.7257769,-0.07661668
711,0.7244276,0.7287365,-0.07661668
713,0.7271236,0.7316842,-0.07401875
715,0.7271236,0.7316842,-0.07401875
717,0.7287365,0.733287,-0.07661668
720,0.7287365,0.733287,-0.07661668
722,0.7303458,0.7343537,-0.07661668
724,0.7303458,0.7343537,-0.07661668
727,0.7316842,0.7359507,-0.07661668
730,0.7316842,0.7359507,-0.07661668
732,0.7330202,0.7372789,-0.07661668
734,0.7319516,0.7362165,-0.07401875
736,0.7319516,0.7362165,-0.07401875
739,0.7292733,0.7335538,-0.07401875
741,0.7292733,0.7335538,-0.07401875
743,0.7279305,0.7322189,-0.07401875
745,0.7279305,0.7322189,-0.07401875
748,0.7268545,0.7311491,-0.07132626
750,0.7268545,0.7311491,-0.07132626
752,0.7260464,0.7300779,-0.07401875
754,0.7063754,0.7107937,-0.06255726
756,0.7063754,0.7107937,-0.06255726
759,0.6915378,0.6952065,-0.05934703
761,0.6915378,0.6952065,-0.05934703
763,0.6789736,0.6821364,-0.05233916
765,0.6789736,0.6821364,-0.05233916
769,0.6801254,0.6832828,-0.05233916
771,0.680413,0.6835691,-0.05233916
773,0.680413,0.6835691,-0.05233916
775,0.6676395,0.6702721,-0.04423466
778,0.6676395,0.6702721,-0.04423466
780,0.6564078,0.6590852,-0.03956468
782,0.6564078,0.6590852,-0.03956468
784,0.6339648,0.6348901,-0.02797646
787,0.6339648,0.6348901,-0.02797646
789,0.6252628,0.6255757,-0.01978234
791,0.6205508,0.6202354,0
793,0.6205508,0.6202354,0
796,0.6161205,0.615167,0
798,0.6161205,0.615167,0
800,0.6084505,0.6068404,0
802,0.6084505,0.6068404,0
805,0.605226,0.6026341,0
807,0.6042554,0.6016592,0
809,0.6042554,0.6016592,0
812,0.6023093,0.598725,0
814,0.6023093,0.598725,0
817,0.6013339,0.5970887,0.01978234
819,0.6013339,0.5970887,0.01978234
821,0.6000308,0.5961047,0
823,0.6000308,0.5961047,0
826,0.5983981,0.5941319,0
828,0.5951191,0.590498,0
830,0.5951191,0.590498,0
832,0.5928131,0.5885065,0
835,0.5928131,0.5885065,0
837,0.5908293,0.5865081,0
839,0.5908293,0.5865081,0
841,0.5914913,0.5875081,0
844,0.5914913,0.5875081,0
846,0.5921526,0.5878411,0
848,0.5908293,0.587175,0
850,0.5908293,0.587175,0
854,0.589503,0.5858405,0
856,0.589503,0.5858405,0
858,0.587175,0.583833,0
860,0.587175,0.583833,0
863,0.5855064,0.5818186,0
865,0.6003569,0.5983981,0
867,0.6003569,0.5983981,0
869,0.6145305,0.6135744,0
872,0.6145305,0.6135744,0
874,0.6327289,0.6330382,-0.01978234
876,0.6327289,0.6330382,-0.01978234
878,0.6477052,0.6486109,-0.02797646
880,0.6477052,0.6486109,-0.02797646
883,0.6728944,0.6752167,-0.03956468
885,0.6835691,0.6864257,-0.04423466
887,0.6835691,0.6864257,-0.04423466
889,0.6954879,0.6988559,-0.04845664
892,0.6954879,0.6988559,-0.04845664
894,0.7052664,0.7088641,-0.05233916
897,0.7052664,0.7088641,-0.05233916
899,0.7200928,0.7238871,-0.05934703
902,0.7200928,0.7238871,-0.05934703
904,0.7255072,0.7295417,-0.06255726
906,0.7300779,0.7343537,-0.0656106
908,0.7300779,0.7343537,-0.0656106
911,0.7300779,0.7343537,-0.0656106
913,0.7300779,0.7343537,-0.0656106
915,0.7340872,0.7383398,-0.06852804
917,0.7340872,0.7383398,-0.06852804
920,0.7378095,0.7420408,-0.06852804
922,0.7252374,0.7295417,-0.06255726
924,0.7252374,0.7295417,-0.06255726
926,0.7121689,0.7162784,-0.05934703
929,0.7121689,0.7162784,-0.05934703
931,0.6937978,0.697174,-0.05233916
933,0.6937978,0.697174,-0.05233916
935,0.6789736,0.6821364,-0.04845664
939,0.6667597,0.6696879,-0.04423466
941,0.6711472,0.6743467,-0.04423466
943,0.6749268,0.6778198,-0.04423466
945,0.6749268,0.6778198,-0.04423466
947,0.6778198,0.6812752,-0.04845664
950,0.6778198,0.6812752,-0.04845664
952,0.6705639,0.6734757,-0.03956468
954,0.6705639,0.6734757,-0.03956468
956,0.6717301,0.6746368,-0.03956468
959,0.6717301,0.6746368,-0.03956468
961,0.6778198,0.6807005,-0.04423466
963,0.6829963,0.6858553,-0.04423466
965,0.6829963,0.6858553,-0.04423466
968,0.6985759,0.7019292,-0.05233916
970,0.6985759,0.7019292,-0.05233916
972,0.6889865,0.6921035,-0.04423466
974,0.6889865,0.6921035,-0.04423466
977,0.6812752,0.6838553,-0.03956468
979,0.6749268,0.6775311,-0.03956468
982,0.6749268,0.6775311,-0.03956468
984,0.652221,0.6537194,-0.03426402
987,0.652221,0.6537194,-0.03426402
989,0.6434618,0.644677,-0.01978234
991,0.6434618,0.644677,-0.01978234
993,0.6342734,0.6345818,-0.01978234
996,0.6342734,0.6345818,-0.01978234
998,0.6202354,0.6196041,0
1000,0.6148488,0.6135744,0
1002,0.6148488,0.6135744,0
1005,0.6097356,0.6084505,0
1007,0.6097356,0.6084505,0
1009,0.6071628,0.6049027,0
1012,0.6023093,0.5993783,0
1014,0.6023093,0.5993783,0
1016,0.5997046,0.5967609,0
1019,0.5997046,0.5967609,0
1021,0.5977437,0.5941319,0
1024,0.5977437,0.5941319,0
1027,0.5961047,0.591822,0
1029,0.5951191,0.590498,0.01978234
1031,0.5951191,0.590498,0.01978234
1034,0.5938025,0.5891711,0
1036,0.5938025,0.5891711,0
1038,0.5934729,0.5881739,0
1041,0.5934729,0.5881739,0
1043,0.628073,0.6252628,0
1045,0.6413296,0.6388841,0
1048,0.6413296,0.6388841,0
1050,0.6428534,0.6410245,0
1052,0.6428534,0.6410245,0
1054,0.644677,0.6422443,0
1057,0.6413296,0.6379647,0
1059,0.6413296,0.6379647,0
1061,0.640108,0.6367366,0
1064,0.640108,0.6367366,0
1067,0.6318005,0.6277614,0
1069,0.6318005,0.6277614,0
1072,0.629007,0.6246366,0
1074,0.6255757,0.6211812,0
1076,0.6255757,0.6211812,0
1079,0.6208661,0.6161205,0
1081,0.6208661,0.6161205,0
1083,0.6158028,0.6110179,0
1086,0.6119779,0.6074851,0
1088,0.6119779,0.6074851,0
1090,0.608772,0.6039315,0
1093,0.608772,0.6039315,0
1095,0.6074851,0.6026341,0
1097,0.6074851,0.6026341,0
1100,0.6058724,0.6010084,0
1102,0.6045791,0.6000308,0
1104,0.6045791,0.6000308,0
1107,0.6039315,0.5990517,0.01978234
1110,0.6039315,0.5990517,0.01978234
1112,0.6026341,0.598071,0
1115,0.6026341,0.598071,0
1117,0.6013339,0.5967609,0.01978234
1119,0.6003569,0.5957764,0
1122,0.6003569,0.5957764,0
1124,0.5997046,0.5961047,0
1126,0.5997046,0.5961047,0
1129,0.6003569,0.5961047,0
1131,0.5990517,0.5947903,0
1133,0.5990517,0.5947903,0
1136,0.598071,0.5944612,0
1138,0.598071,0.5944612,0
1140,0.5967609,0.5934729,0
1142,0.5967609,0.5934729,0
1145,0.5964329,0.5931431,0
1147,0.5957764,0.5921526,0
1149,0.5957764,0.5921526,0
1153,0.5951191,0.591822,0
1155,0.5951191,0.591822,0
1157,0.5961047,0.5928131,0
1160,0.5964329,0.5938025,0
1162,0.5964329,0.5938025,0
1164,0.5970887,0.5941319,0
1167,0.5970887,0.5941319,0
1169,0.5974163,0.5944612,0
1171,0.5974163,0.5944612,0
1174,0.5974163,0.5944612,0
1176,0.5983981,0.5954478,0
1178,0.5983981,0.5954478,0
1181,0.5993783,0.5957764,0
1183,0.5993783,0.5957764,0
1185,0.5983981,0.5961047,0
1188,0.6000308,0.5970887,0
1190,0.6000308,0.5970887,0
1192,0.6010084,0.5977437,0
1196,0.6010084,0.5977437,0
1198,0.6000308,0.5970887,0
1200,0.6000308,0.5970887,0
1203,0.5990517,0.5961047,0
1205,0.5997046,0.5964329,0.01978234
1207,0.5997046,0.5964329,0.01978234
1210,0.6000308,0.5967609,0
1212,0.6000308,0.5967609,0
1214,0.6003569,0.5964329,0
1217,0.6003569,0.5964329,0
1219,0.6003569,0.5967609,0.01978234
1221,0.6003569,0.5967609,0
1224,0.6003569,0.5967609,0
1226,0.5997046,0.5961047,0
1228,0.5997046,0.5961047,0
1230,0.5993783,0.5961047,0
1233,0.6003569,0.5964329,0
1235,0.6003569,0.5964329,0
1238,0.6029587,0.5990517,0
1241,0.6029587,0.5990517,0
1243,0.6049027,0.6003569,0
1245,0.6049027,0.6003569,0
1248,0.6061952,0.6016592,0
1250,0.6061952,0.6016592,0
1252,0.6061952,0.6016592,0
1255,0.6084505,0.6036074,0
1257,0.6084505,0.6036074,0
1259,0.615485,0.6110179,0
1262,0.6218109,0.6173896,0
1264,0.6218109,0.6173896,0
1266,0.6262009,0.6214961,0
1269,0.6262009,0.6214961,0
1271,0.6314908,0.6258884,0.01978234
1273,0.6314908,0.6258884,0.01978234
1276,0.6324196,0.6271377,0.01978234
1278,0.6333472,0.6277614,0.01978234
1281,0.6333472,0.6277614,0.01978234
1284,0.6314908,0.6258884,0
1286,0.6314908,0.6258884,0
1288,0.6296288,0.6246366,0.01978234
1291,0.6318005,0.6268256,0.01978234
1293,0.6318005,0.6268256,0.01978234
1295,0.6330382,0.6274496,0.01978234
1298,0.6330382,0.6274496,0.01978234
1300,0.6311808,0.6262009,0
1302,0.6311808,0.6262009,0
1305,0.6296288,0.6246366,0.01978234
1307,0.6271377,0.6221254,0
1309,0.6271377,0.6221254,0
1312,0.6236961,0.6189722,0
1314,0.6236961,0.6189722,0
1316,0.6208661,0.616438,0
1318,0.6208661,0.616438,0
1321,0.6167554,0.6122975,0
1324,0.615167,0.6106976,0.01978234
1326,0.615167,0.6106976,0.01978234
1329,0.614212,0.6094146,0
1331,0.614212,0.6094146,0
1333,0.6106976,0.6068404,0
1336,0.6094146,0.605226,0.01978234
1338,0.6094146,0.605226,0.01978234
1340,0.6074851,0.6032831,0
1343,0.6074851,0.6032831,0
1345,0.6065179,0.6026341,0
1347,0.6065179,0.6026341,0
1350,0.605226,0.6019843,0
1352,0.6049027,0.6016592,0
1354,0.6049027,0.6016592,0
1357,0.6214961,0.6202354,0
1359,0.6214961,0.6202354,0
1361,0.6364292,0.635814,-0.01978234
1364,0.6382713,0.6379647,-0.01978234
1367,0.6382713,0.6379647,-0.01978234
1369,0.6413296,0.6419396,-0.01978234
1372,0.6413296,0.6419396,-0.01978234
1374,0.6382713,0.6385778,-0.01978234
1376,0.6382713,0.6385778,-0.01978234
1379,0.6361217,0.6361217,-0.01978234
1381,0.6283845,0.6286958,-0.01978234
1383,0.6283845,0.6286958,-0.01978234
1386,0.6240098,0.6236961,0
1388,0.6240098,0.6236961,0
1390,0.6167554,0.6158028,0
1393,0.6167554,0.6158028,0
1395,0.6138933,0.612617,0
1397,0.6074851,0.6058724,0
1400,0.6074851,0.6058724,0
1402,0.6042554,0.6023093,0
1404,0.6042554,0.6023093,0
1406,0.6016592,0.5997046,0
1410,0.6049027,0.6019843,0
1412,0.6049027,0.6019843,0
1414,0.6071628,0.6042554,0
1417,0.6071628,0.6042554,0
1419,0.6113381,0.6068404,0
1421,0.6113381,0.6068404,0
1424,0.6132555,0.6094146,0
1426,0.6177064,0.6132555,0
1428,0.6177064,0.6132555,0
1431,0.6277614,0.6227542,0
1433,0.6277614,0.6227542,0
1435,0.6434618,0.6370438,0.01978234
1438,0.6504185,0.6440698,0.02797646
1440,0.6504185,0.6440698,0.02797646
1442,0.6558113,0.6498165,0.02797646
1445,0.6558113,0.6498165,0.02797646
1447,0.6685182,0.6617518,0.01978234
1449,0.6685182,0.6617518,0.01978234
1453,0.6749268,0.6679325,0.01978234
1455,0.6832828,0.675796,0.02797646
1457,0.6832828,0.675796,0.02797646
1460,0.6855699,0.6786853,0.02797646
1462,0.6855699,0.6786853,0.02797646
1464,0.688134,0.680988,0.03426402
1467,0.6892704,0.6824232,0.02797646
1469,0.6892704,0.6824232,0.02797646
1471,0.6901216,0.6829963,0.02797646
1474,0.6901216,0.6829963,0.02797646
1476,0.688134,0.6815624,0.02797646
1478,0.688134,0.6815624,0.02797646
1481,0.6878495,0.680988,0.01978234
1483,0.6824232,0.6766641,0.01978234
1485,0.6824232,0.6766641,0.01978234
1488,0.680988,0.6752167,0.01978234
1490,0.680988,0.6752167,0.01978234
1492,0.6775311,0.6720214,0.01978234
1495,0.6775311,0.6720214,0.01978234
1498,0.6769533,0.6711472,0.01978234
1500,0.6728944,0.6673463,0.01978234
1502,0.6728944,0.6673463,0.01978234
1505,0.6655847,0.660568,0
1507,0.6655847,0.660568,0
1509,0.6620474,0.6573014,0
1512,0.6531205,0.649214,0
1514,0.6531205,0.649214,0
1516,0.6486109,0.6443735,0
1519,0.6486109,0.6443735,0
1521,0.6379647,0.6342734,0
1523,0.6379647,0.6342734,0
1526,0.6330382,0.6296288,0
1528,0.6230683,0.6199199,0
1530,0.6230683,0.6199199,0
1533,0.618656,0.615485,0
1536,0.618656,0.615485,0
1538,0.615167,0.6119779,0
1541,0.6394964,0.6385778,0
1543,0.6394964,0.6385778,0
1545,0.649214,0.6489125,-0.01978234
1548,0.649214,0.6489125,-0.01978234
1550,0.6464956,0.64589,0
1552,0.6464956,0.64589,0
1555,0.645587,0.6452838,-0.01978234
1557,0.633656,0.6327289,0
1559,0.633656,0.6327289,0
1562,0.6299395,0.6286958,0
1564,0.6299395,0.6286958,0
1566,0.6173896,0.6158028,0
1569,0.6173896,0.6158028,0
1571,0.6138933,0.6116581,0
1573,0.6097356,0.607807,0
1575,0.6097356,0.607807,0
1579,0.6084505,0.6061952,0
1581,0.6084505,0.6061952,0
1583,0.6016592,0.5993783,0
1586,0.5997046,0.5970887,0
1588,0.5997046,0.5970887,0
1590,0.5964329,0.5928131,0
1593,0.5964329,0.5928131,0
1595,0.5951191,0.5924829,0
1597,0.5951191,0.5924829,0
1600,0.5944612,0.5911604,0
1602,0.5947903,0.5908293,0
1604,0.5947903,0.5908293,0
1607,0.5931431,0.5891711,0
1609,0.5931431,0.5891711,0
1611,0.5911604,0.587175,0
1614,0.5901666,0.5865081,0
1616,0.5901666,0.5865081,0
1618,0.589503,0.5855064,0
1622,0.589503,0.5855064,0
1624,0.5901666,0.5868416,0
1626,0.5901666,0.5868416,0
1629,0.5911604,0.5878411,0
1631,0.5934729,0.589503,0
1633,0.5934729,0.589503,0
1636,0.5961047,0.5921526,0
1638,0.5961047,0.5921526,0
1640,0.6148488,0.6122975,0
1643,0.6308707,0.629007,0
1645,0.6308707,0.629007,0
1647,0.645587,0.6440698,0
1650,0.645587,0.6440698,0
1652,0.6471007,0.6452838,0
1654,0.6471007,0.6452838,0
1657,0.6467983,0.644677,0
1659,0.645587,0.6434618,0
1661,0.645587,0.6434618,0
1664,0.6407191,0.6385778,0
1667,0.6407191,0.6385778,0
1669,0.6379647,0.6355062,0
1671,0.6379647,0.6355062,0
1674,0.6327289,0.6299395,0
1676,0.6305605,0.6274496,0
1678,0.6305605,0.6274496,0
1681,0.6255757,0.6218109,0
1683,0.6255757,0.6218109,0
1685,0.6227542,0.6189722,0
1688,0.6376578,0.6351982,0
1690,0.6376578,0.6351982,0
1692,0.651921,0.6507192,0
1695,0.651921,0.6507192,0
1697,0.6647022,0.6638185,0
1699,0.6647022,0.6638185,0
1702,0.6940797,0.694925,-0.01978234
1704,0.7060983,0.7074825,-0.02797646
1707,0.7060983,0.7074825,-0.02797646
1710,0.6954879,0.6966124,-0.01978234
1712,0.6954879,0.6966124,-0.01978234
1714,0.6926687,0.6932335,-0.02797646
1717,0.6723125,0.6723125,-0.01978234
1719,0.6723125,0.6723125,-0.01978234
1721,0.6652907,0.6652907,0
1724,0.6652907,0.6652907,0
1726,0.6464956,0.645587,0
1728,0.6464956,0.645587,0
1731,0.6404136,0.6388841,0
1733,0.6277614,0.6262009,0
1735,0.6277614,0.6262009,0
1738,0.6236961,0.6218109,0
1740,0.6236961,0.6218109,0
1742,0.616438,0.6138933,0
1745,0.614212,0.6113381,0
1747,0.614212,0.6113381,0
1750,0.6097356,0.6071628,0
1752,0.6097356,0.6071628,0
1755,0.6090934,0.6058724,0
1757,0.6090934,0.6058724,0
1759,0.6045791,0.6019843,0
1762,0.6036074,0.6010084,0
1764,0.6036074,0.6010084,0
1766,0.6019843,0.598725,0
1769,0.6019843,0.598725,0
1771,0.6019843,0.5990517,0
1773,0.6019843,0.5990517,0
1776,0.6003569,0.5974163,0
1778,0.6003569,0.5970887,0
1780,0.6003569,0.5970887,0
1783,0.6013339,0.598725,0
1785,0.6013339,0.598725,0
1787,0.6023093,0.5993783,0
1790,0.6218109,0.6202354,0
1793,0.6218109,0.6202354,0
1795,0.6516207,0.6513204,0
1798,0.6516207,0.6513204,0
1800,0.6682253,0.6688108,-0.02797646
1802,0.6682253,0.6688108,-0.02797646
1805,0.6946434,0.6960504,-0.03426402
1807,0.6895542,0.6909717,-0.03426402
1809,0.6895542,0.6909717,-0.03426402
1812,0.6824232,0.6835691,-0.02797646
1814,0.6824232,0.6835691,-0.02797646
1816,0.6720214,0.6726035,-0.02797646
1819,0.6573014,0.6575991,-0.01978234
1821,0.6573014,0.6575991,-0.01978234
1823,0.6477052,0.6480073,-0.01978234
1826,0.6477052,0.6480073,-0.01978234
1828,0.6348901,0.6342734,-0.01978234
1830,0.6348901,0.6342734,-0.01978234
1833,0.6286958,0.628073,-0.01978234
1836,0.6199199,0.6189722,-0.01978234
1838,0.6199199,0.6189722,-0.01978234
1840,0.6158028,0.6148488,0
1843,0.6158028,0.6148488,0
1845,0.6129363,0.6113381,0
1847,0.6129363,0.6113381,0
1850,0.6061952,0.6042554,0
1852,0.6026341,0.6010084,0
1854,0.6026341,0.6010084,0
1857,0.5983981,0.5967609,0
1859,0.5983981,0.5967609,0
1861,0.5977437,0.5961047,-0.01978234
1864,0.598071,0.5964329,0
1866,0.598071,0.5964329,0
1868,0.5993783,0.5970887,0
1871,0.5993783,0.5970887,0
1873,0.6010084,0.5990517,0
1875,0.6010084,0.5990517,0
1879,0.6026341,0.6003569,0
1881,0.6039315,0.6016592,0
1883,0.6039315,0.6016592,0
1886,0.607807,0.6049027,0
1888,0.607807,0.6049027,0
1890,0.6103771,0.6071628,0
1893,0.6138933,0.6110179,0
1895,0.6138933,0.6110179,0
1897,0.615485,0.6116581,0
1900,0.615485,0.6116581,0
1902,0.6177064,0.6135744,0
1904,0.6177064,0.6135744,0
1907,0.618656,0.6145305,0
1909,0.6230683,0.6189722,0
1911,0.6230683,0.6189722,0
1914,0.6246366,0.6202354,0
1916,0.6246366,0.6202354,0
1918,0.6308707,0.6265134,0
1922,0.6308707,0.6265134,0
1924,0.6308707,0.6265134,0
1926,0.640108,0.6351982,0
1928,0.640108,0.6351982,0
1931,0.6474031,0.6422443,0
1933,0.6474031,0.6422443,0
1935,0.6661724,0.6629335,0
1938,0.6720214,0.6688108,0
1940,0.6720214,0.6688108,0
1942,0.6807005,0.6778198,0
1945,0.6807005,0.6778198,0
1947,0.6841414,0.6812752,0
1949,0.6841414,0.6812752,0
1952,0.6869956,0.6835691,0.01978234
1954,0.6884183,0.6849989,0
1956,0.6884183,0.6849989,0
1959,0.6832828,0.6795497,0
1961,0.6832828,0.6795497,0
1964,0.6720214,0.6679325,0
1967,0.6658786,0.6620474,0
1969,0.6658786,0.6620474,0
1971,0.661456,0.6578966,0
1974,0.661456,0.6578966,0
1976,0.6510199,0.6471007,0
1978,0.6510199,0.6471007,0
1981,0.6474031,0.6437659,0
1983,0.6425489,0.6388841,0
1985,0.6425489,0.6388841,0
1988,0.6410245,0.6373509,0
1990,0.6410245,0.6373509,0
1992,0.6385778,0.6348901,0
1995,0.6379647,0.6339648,0
1997,0.6379647,0.6339648,0
1999,0.6327289,0.6296288,0
2002,0.6327289,0.6296288,0
2004,0.6262009,0.6233823,0
2007,0.6262009,0.6233823,0
2010,0.6224399,0.6199199,0
2012,0.6177064,0.615167,0
2014,0.6177064,0.615167,0
2016,0.615485,0.6138933,0
2019,0.615485,0.6138933,0
2021,0.6119779,0.6110179,-0.01978234
2023,0.6100564,0.6094146,0
2026,0.6100564,0.6094146,0
2028,0.6084505,0.6081289,-0.01978234
2030,0.6084505,0.6081289,-0.01978234
2033,0.6094146,0.6103771,-0.03426402
2035,0.6094146,0.6103771,-0.03426402
2037,0.6097356,0.6106976,-0.03956468
2040,0.6061952,0.6071628,-0.03956468
2042,0.6061952,0.6071628,-0.03956468
2044,0.6049027,0.6058724,-0.03956468
2048,0.6049027,0.6058724,-0.03956468
2050,0.6010084,0.6013339,-0.03426402
2052,0.6010084,0.6013339,-0.03426402
2055,0.5997046,0.6000308,-0.03426402
2057,0.5957764,0.5957764,-0.02797646
2059,0.5957764,0.5957764,-0.02797646
2062,0.5944612,0.5944612,-0.02797646
2064,0.5944612,0.5944612,-0.02797646
2066,0.5911604,0.5911604,-0.01978234
2069,0.5901666,0.5898349,-0.01978234
2071,0.5901666,0.5898349,-0.01978234
2073,0.5878411,0.5868416,0
2076,0.5878411,0.5868416,0
2078,0.587175,0.5861744,0
2080,0.587175,0.5861744,0
2083,0.5891711,0.5878411,0
2085,0.589503,0.5881739,-0.01978234
2087,0.589503,0.5881739,-0.01978234
2091,0.598725,0.5964329,0
2093,0.598725,0.5964329,0
2095,0.6019843,0.5997046,0
2098,0.6026341,0.6003569,0
2100,0.6026341,0.6003569,0
2102,0.6036074,0.6013339,0
2104,0.6036074,0.6013339,0
2107,0.6045791,0.6016592,0
2109,0.6045791,0.6016592,0
2111,0.605226,0.6029587,0
2114,0.6055493,0.6032831,0
2116,0.6055493,0.6032831,0
2118,0.6068404,0.6036074,0
2121,0.6068404,0.6036074,0
2123,0.607807,0.6042554,0
2125,0.607807,0.6042554,0
2128,0.6081289,0.6049027,0
2130,0.6110179,0.6068404,0
2132,0.6110179,0.6068404,0
2136,0.6119779,0.6081289,0
2138,0.6119779,0.6081289,0
2140,0.6138933,0.6097356,0
2143,0.614212,0.6097356,0
2145,0.614212,0.6097356,0
2147,0.614212,0.6097356,0
2150,0.614212,0.6097356,0
2152,0.615167,0.6106976,0.01978234
2154,0.615167,0.6106976,0.01978234
2157,0.6158028,0.6110179,0
2159,0.6170725,0.6119779,0
2161,0.6170725,0.6119779,0
2164,0.6177064,0.6119779,0.01978234
2166,0.6177064,0.6119779,0.01978234
2168,0.635814,0.6318005,0
2171,0.660568,0.6578966,0
2173,0.660568,0.6578966,0
2176,0.6688108,0.6661724,0
2179,0.6688108,0.6661724,0
2181,0.6789736,0.675796,0
2183,0.6789736,0.675796,0
2185,0.6815624,0.6783969,0
2188,0.6841414,0.6807005,0
2190,0.680988,0.6772422,0
2192,0.6786853,0.6743467,0
2195,0.6786853,0.6743467,0
2197,0.6720214,0.6676395,0
2199,0.6685182,0.6641131,0
2202,0.6685182,0.6641131,0
2204,0.6658786,0.661456,0
2206,0.6658786,0.661456,0
2209,0.6564078,0.651921,0
2211,0.6564078,0.651921,0
2213,0.65342,0.6489125,0
2216,0.6477052,0.6431577,0
2219,0.6477052,0.6431577,0
2221,0.646193,0.6419396,0.01978234
2224,0.646193,0.6419396,0.01978234
2226,0.6422443,0.6376578,0
2228,0.6422443,0.6376578,0
2231,0.6413296,0.6367366,0
2233,0.6355062,0.6311808,0.01978234
2235,0.6355062,0.6311808,0.01978234
2238,0.633656,0.6293179,0
2240,0.633656,0.6293179,0
2242,0.6314908,0.6265134,0.01978234
2245,0.6277614,0.6230683,0
2247,0.6277614,0.6230683,0
2249,0.6258884,0.6211812,0
2252,0.6258884,0.6211812,0
2254,0.6255757,0.6211812,0
2256,0.6255757,0.6211812,0
2259,0.6252628,0.6205508,0
2262,0.6252628,0.6208661,0
2264,0.6252628,0.6208661,0
2267,0.6252628,0.6205508,0
2269,0.6252628,0.6205508,0
2271,0.6249498,0.6202354,0.01978234
2273,0.6434618,0.6404136,0
2276,0.6434618,0.6404136,0
2278,0.6728944,0.6711472,0
2280,0.6728944,0.6711472,0
2283,0.6892704,0.6887025,0
2285,0.6892704,0.6887025,0
2287,0.7149112,0.7154584,-0.02797646
2290,0.711069,0.711069,-0.01978234
2292,0.711069,0.711069,-0.01978234
2294,0.7083117,0.7083117,-0.01978234
2297,0.7083117,0.7083117,-0.01978234
2299,0.6968932,0.6963314,-0.01978234
2301,0.6968932,0.6963314,-0.01978234
2305,0.6898379,0.6887025,0
2307,0.7052664,0.7052664,-0.01978234
2309,0.7052664,0.7052664,-0.01978234
2312,0.7121689,0.7121689,-0.01978234
2314,0.7121689,0.7121689,-0.01978234
2316,0.7027649,0.7024865,-0.01978234
2319,0.7002546,0.6996954,-0.01978234
2321,0.7002546,0.6996954,-0.01978234
2323,0.690405,0.6895542,0
2326,0.690405,0.6895542,0
2328,0.6781085,0.6760855,0
2330,0.6781085,0.6760855,0
2333,0.6775311,0.6749268,0
2335,0.6775311,0.6746368,0
2337,0.6775311,0.6746368,0
2340,0.6746368,0.6711472,0
2342,0.6746368,0.6711472,0
2344,0.6705639,0.6667597,0
2348,0.6708556,0.6664661,0
2350,0.6708556,0.6664661,0
2352,0.6717301,0.6664661,0
2355,0.6717301,0.6664661,0
2357,0.6760855,0.6705639,0.01978234
2359,0.6760855,0.6705639,0.01978234
2361,0.6795497,0.6734757,0
2364,0.6827098,0.6760855,0.01978234
2366,0.6827098,0.6760855,0.01978234
2368,0.6855699,0.6786853,0.01978234
2371,0.6855699,0.6786853,0.01978234
2373,0.6878495,0.680988,0.01978234
2375,0.6946434,0.6872803,0.02797646
2378,0.6946434,0.6872803,0.02797646
2380,0.6977351,0.6895542,0.03426402
2382,0.6977351,0.6895542,0.03426402
2385,0.6996954,0.6918207,0.02797646
2387,0.6996954,0.6918207,0.02797646
2390,0.7016503,0.6935157,0.02797646
2393,0.6954879,0.688134,0.02797646
2395,0.6954879,0.688134,0.02797646
2397,0.6918207,0.6841414,0.02797646
2400,0.6918207,0.6841414,0.02797646
2402,0.6887025,0.6815624,0.02797646
2404,0.6887025,0.6815624,0.02797646
2407,0.6869956,0.6795497,0.02797646
2409,0.6878495,0.6798376,0.02797646
2411,0.6878495,0.6798376,0.02797646
2414,0.6884183,0.680413,0.03426402
2416,0.6884183,0.680413,0.03426402
2418,0.6798376,0.6726035,0.02797646
2421,0.6775311,0.6702721,0.02797646
2423,0.6775311,0.6702721,0.02797646
2425,0.6714388,0.6644077,0.02797646
2428,0.6714388,0.6644077,0.02797646
2430,0.6884183,0.6827098,0.01978234
2433,0.6884183,0.6827098,0.01978234
2436,0.7146374,0.7113441,0
2438,0.7246976,0.7225344,0
2440,0.7246976,0.7225344,0
2443,0.7214502,0.719005,0
2445,0.7192771,0.7168246,0
2447,0.7179157,0.7151849,0
2449,0.7024865,0.6994157,0
2452,0.7024865,0.6994157,0
2454,0.6937978,0.6906884,0
2456,0.6937978,0.6906884,0
2459,0.6869956,0.6838553,0
2461,0.6821364,0.6789736,0
2463,0.6783969,0.6752167,0
2466,0.6711472,0.6676395,0
2468,0.6711472,0.6676395,0
2470,0.661456,0.6578966,0
2473,0.661456,0.6578966,0
2476,0.6584912,0.6546168,0
2478,0.6578966,0.6537194,0.01978234
2481,0.6578966,0.6537194,0.01978234
2483,0.6723125,0.66998,0
2485,0.6723125,0.66998,0
2488,0.6952065,0.6940797,0
2490,0.6952065,0.6940797,0
2492,0.6935157,0.6921035,-0.01978234
2495,0.6915378,0.690405,0
2497,0.6915378,0.690405,0
2499,0.6855699,0.6844273,0
2502,0.6855699,0.6844273,0
2504,0.6749268,0.6737661,0
2506,0.6749268,0.6737661,0
2509,0.6702721,0.6693957,0
2511,0.667053,0.6655847,0
2513,0.667053,0.6655847,0
2516,0.6570037,0.6555129,0
2519,0.6570037,0.6555129,0
2521,0.6537194,0.652221,0
2524,0.6434618,0.6416347,0
2526,0.6434618,0.6416347,0
2528,0.640108,0.6379647,0
2531,0.640108,0.6379647,0
2533,0.6305605,0.629007,0
2535,0.6305605,0.629007,0
2537,0.6277614,0.6258884,0
2540,0.6205508,0.618656,0
2542,0.6205508,0.618656,0
2544,0.6180231,0.6158028,0
2547,0.6180231,0.6158028,0
2549,0.6170725,0.6148488,0
2551,0.616438,0.6135744,0
2554,0.616438,0.6135744,0
2556,0.6214961,0.6183397,0
2558,0.6258884,0.6224399,0
2562,0.6293179,0.6255757,0
2564,0.6293179,0.6255757,0
2566,0.6376578,0.6339648,0
2569,0.6501176,0.645587,0
2571,0.6501176,0.645587,0
2573,0.6318005,0.6274496,0
2576,0.6318005,0.6274496,0
2578,0.6039315,0.6003569,0
2580,0.6039315,0.6003569,0
2583,0.563365,0.5609285,0
2585,0.5482264,0.5457222,0
2587,0.5482264,0.5457222,0
2590,0.5352231,0.533025,0
2592,0.5352231,0.533025,0
2594,0.5143426,0.5124369,0
2597,0.5078341,0.5059038,0
2599,0.5078341,0.5059038,0
2601,0.5008504,0.4992853,0
2605,0.5008504,0.4992853,0
2607,0.5008504,0.4992853,0
2609,0.5008504,0.4992853,0
2612,0.5078341,0.5070629,0
2614,0.5188877,0.518133,0
2616,0.5188877,0.518133,0
2619,0.533392,0.533392,0
2621,0.533392,0.533392,0
2623,0.5381398,0.5385033,0
2625,0.6042554,0.6026341,0
2628,0.6042554,0.6026341,0
2630,0.6345818,0.6311808,0
2632,0.6345818,0.6311808,0
2635,0.6795497,0.6740565,0.01978234
2637,0.6795497,0.6740565,0.01978234
2639,0.7063754,0.6996954,0.02797646
2642,0.7281993,0.721179,0.02797646
2644,0.7281993,0.721179,0.02797646
2647,0.7651502,0.7571809,0.03426402
2650,0.7651502,0.7571809,0.03426402
2652,0.7805943,0.7727842,0.03956468
2654,0.8045425,0.7959845,0.04423466
2657,0.8045425,0.7959845,0.04423466
2659,0.8134917,0.8052719,0.04423466
2661,0.8134917,0.8052719,0.04423466
2664,0.8277984,0.8192443,0.04423466
2666,0.8277984,0.8192443,0.04423466
2668,0.8336869,0.8249568,0.04845664
2671,0.8386015,0.8301588,0.04845664
2673,0.8386015,0.8301588,0.04845664
2675,0.8348597,0.825194,0.05595291
2678,0.8348597,0.825194,0.05595291
2680,0.8275619,0.8168523,0.05595291
2682,0.8275619,0.8168523,0.05595291
2685,0.8225815,0.8115651,0.05934703
2688,0.8194832,0.8079404,0.06255726
2690,0.8194832,0.8079404,0.06255726
2693,0.8702065,0.861165,0.05233916
2695,0.8702065,0.861165,0.05233916
2697,0.8906538,0.8824874,0.05233916
2700,0.9339799,0.9270402,0.04423466
2702,0.9339799,0.9270402,0.04423466
2704,0.9514161,0.9450188,0.04423466
2707,0.9514161,0.9450188,0.04423466
2709,0.9771874,0.9725708,0.02797646
2711,0.9771874,0.9725708,0.02797646
2713,1.019908,1.017603,0.01978234
2716,1.039858,1.038917,0
2718,1.039858,1.038917,0
2720,1.049412,1.048852,0
2723,1.049412,1.048852,0
2725,1.057584,1.057029,0
2727,1.073743,1.073014,0
2731,1.073743,1.073014,0
2733,1.082817,1.082455,0
2735,1.082817,1.082455,0
2738,1.100562,1.100385,0
2740,1.100562,1.100385,0
2742,1.107475,1.107828,0
2745,1.120998,1.121521,0
2747,1.120998,1.121521,0
2749,1.116625,1.117501,0
2752,1.116625,1.117501,0
2754,1.113291,1.114169,0
2756,1.113291,1.114169,0
2759,1.113466,1.114345,0
2761,1.11452,1.115749,0
2763,1.11452,1.115749,0
2766,1.116976,1.118726,0
2768,1.116976,1.118726,0
2770,1.121347,1.123787,0.01978234
2774,1.123265,1.125701,0
2776,1.123265,1.125701,0
2778,1.125353,1.128132,0
2781,1.125353,1.128132,0
2783,1.123961,1.127785,0
2785,1.123961,1.127785,0
2788,1.124484,1.128479,0
2790,1.122045,1.126917,0.01978234
2792,1.122045,1.126917,0.01978234
2794,1.121696,1.127091,0.01978234
2797,1.121696,1.127091,0.01978234
2799,1.065694,1.070458,0.03426402
2801,1.045114,1.049784,0.04423466
2804,1.045114,1.049784,0.04423466
2806,0.9948499,0.998776,0.05934703
2808,0.9948499,0.998776,0.05934703
2811,0.9763861,0.9797872,0.0656106
2813,0.9763861,0.9797872,0.0656106
2816,0.9555206,0.957975,0.07132626
2819,0.9242921,0.9247154,0.08392937
2821,0.9242921,0.9247154,0.08392937
2823,0.9106421,0.9097822,0.08846933
2826,0.9106421,0.9097822,0.08846933
2828,0.8888945,0.8860281,0.09891172
2830,0.8762568,0.8695317,0.1065312
2833,0.8762568,0.8695317,0.1065312
2835,0.8566085,0.8437192,0.1235407
2837,0.8566085,0.8437192,0.1235407
2840,0.8490367,0.8346253,0.1251145
2842,0.8490367,0.8346253,0.1251145
2844,0.8369665,0.8197219,0.1282043
2847,0.8006416,0.7805943,0.1266688
2849,0.8006416,0.7805943,0.1266688
2851,0.7446731,0.719821,0.1219466
2854,0.7446731,0.719821,0.1219466
2856,0.7319516,0.7047113,0.1235407
2859,0.7319516,0.7047113,0.1235407
2862,0.7203645,0.6912548,0.1266688
2864,0.7080355,0.6755064,0.1312212
2866,0.7080355,0.6755064,0.1312212
2869,0.7049889,0.6720214,0.132704
2871,0.7049889,0.6720214,0.132704
2873,0.6996954,0.6661724,0.1356209
2876,0.6968932,0.6641131,0.1370561
2878,0.6968932,0.6641131,0.1370561
2880,0.7052664,0.6749268,0.1412742
2882,0.7052664,0.6749268,0.1412742
2885,0.7135413,0.6852845,0.14537
2887,0.7135413,0.6852845,0.14537
2889,0.7181882,0.6963314,0.1467098
2892,0.7162784,0.6980155,0.1440177
2894,0.7162784,0.6980155,0.1440177
2896,0.7135413,0.6996954,0.1426525
2899,0.7135413,0.6996954,0.1426525
2902,0.7287365,0.7252374,0.1426525
2904,0.7457234,0.7519946,0.1426525
2907,0.7457234,0.7519946,0.1426525
2909,0.7551107,0.7664279,0.1426525
2911,0.7551107,0.7664279,0.1426525
2914,0.7625886,0.7785863,0.1426525
2916,0.7579558,0.7785863,0.1398823
2918,0.7538139,0.7788376,0.1341704
2921,0.7504317,0.7793398,0.132704
2923,0.7504317,0.7793398,0.132704
2925,0.7643827,0.798684,0.132704
2928,0.7643827,0.798684,0.132704
2930,0.7671934,0.8060005,0.1312212
2932,0.7651502,0.8062432,0.1297215
2935,0.7651502,0.8062432,0.1297215
2937,0.7638705,0.806971,0.1282043
2939,0.7638705,0.806971,0.1282043
2942,0.7551107,0.800886,0.1251145
2945,0.7551107,0.800886,0.1251145
2947,0.7517344,0.7994187,0.1266688
2950,0.747558,0.7962303,0.1266688
2952,0.747558,0.7962303,0.1266688
2954,0.7459858,0.7959845,0.1266688
2957,0.7459858,0.7959845,0.1266688
2959,0.7388696,0.7883269,0.1297215
2961,0.7388696,0.7883269,0.1297215
2964,0.7362165,0.7858408,0.1341704
2966,0.7383398,0.7853427,0.1426525
2968,0.7383398,0.7853427,0.1426525
2970,0.7388696,0.7855918,0.14537
2973,0.7388696,0.7855918,0.14537
2975,0.7483428,0.7910526,0.1557664
2977,0.751474,0.7930291,0.1607126
2980,0.751474,0.7930291,0.1607126
2982,0.7699938,0.8084246,0.1643245
2984,0.7699938,0.8084246,0.1643245
2988,0.7765731,0.8144533,0.1643245
2990,0.7765731,0.8144533,0.1643245
2992,0.745461,0.7893192,0.1594904
2995,0.7335538,0.7803435,0.1570175
2997,0.7335538,0.7803435,0.1570175
2999,0.7478197,0.7908052,0.1631294
3002,0.7478197,0.7908052,0.1631294
3004,0.7689767,0.806971,0.174713
3006,0.7952467,0.828271,0.1813082
3009,0.7952467,0.828271,0.1813082
3011,0.8348597,0.8616194,0.1907741
3013,0.8348597,0.8616194,0.1907741
3016,0.8778186,0.9007034,0.1958353
3018,0.8778186,0.9007034,0.1958353
3020,0.9439828,0.9616448,0.2046302
3023,0.9867525,1.00132,0.2074791
3025,0.9867525,1.00132,0.2074791
3027,1.05462,1.065143,0.2148914
3031,1.05462,1.065143,0.2148914
3033,1.069909,1.077745,0.2238118
3035,1.069909,1.077745,0.2238118
3038,1.096287,1.100029,0.2365626
3040,1.1196,1.120474,0.2502292
3042,1.1196,1.120474,0.2502292
3045,1.140209,1.138492,0.2609472
3047,1.140209,1.138492,0.2609472
3049,1.162138,1.15606,0.2776587
3052,1.166507,1.158427,0.2846186
3054,1.166507,1.158427,0.2846186
3056,1.209013,1.198773,0.2947506
3058,1.209013,1.198773,0.2947506
3061,1.241593,1.23067,0.2987072
3063,1.241593,1.23067,0.2987072
3065,1.283442,1.269954,0.3102743
3068,1.297092,1.281916,0.3171355
3070,1.297092,1.281916,0.3171355
3073,1.315071,1.296639,0.3304307
3076,1.315071,1.296639,0.3304307
3078,1.320862,1.300858,0.3357179
3080,1.309853,1.287552,0.3414966
3083,1.309853,1.287552,0.3414966
3085,1.29679,1.2738,0.3420692
3087,1.29679,1.2738,0.3420692
3090,1.269954,1.244898,0.3426407
3092,1.269954,1.244898,0.3426407
3094,1.256632,1.230511,0.3426407
3097,1.25445,1.229238,0.3374619
3099,1.25445,1.229238,0.3374619
3101,1.261605,1.237804,0.332791
3104,1.261605,1.237804,0.332791
3106,1.268875,1.245841,0.3292442
3108,1.286944,1.262226,0.3363003
3111,1.286944,1.262226,0.3363003
3113,1.295431,1.269954,0.339197
3116,1.295431,1.269954,0.339197
3119,1.308806,1.280847,0.3483046
3121,1.308806,1.280847,0.3483046
3123,1.289678,1.26083,0.3488659
3126,1.26393,1.233053,0.3499859
3128,1.26393,1.233053,0.3499859
3130,1.260674,1.230829,0.3454843
3133,1.260674,1.230829,0.3454843
3135,1.258655,1.229874,0.3420692
3137,1.258655,1.229874,0.3420692
3140,1.239542,1.210469,0.339197
3142,1.213375,1.183164,0.3386196
3144,1.213375,1.183164,0.3386196
3146,1.194357,1.160115,0.3488659
3149,1.194357,1.160115,0.3488659
3151,1.167011,1.125701,0.364769
3153,1.157244,1.112939,0.3711503
3156,1.157244,1.112939,0.3711503
3159,1.146883,1.098427,0.3805216
3161,1.146883,1.098427,0.3805216
3164,1.135222,1.07829,0.3995845
3166,1.135222,1.07829,0.3995845
3168,1.132633,1.071371,0.4083038
3171,1.145517,1.081913,0.4135417
3173,1.145517,1.081913,0.4135417
3175,1.157752,1.095037,0.4116447
3178,1.157752,1.095037,0.4116447
3180,1.168184,1.106061,0.410693
3182,1.166675,1.097179,0.4256662
3185,1.166675,1.097179,0.4256662
3187,1.166172,1.093785,0.4316007
3189,1.166172,1.093785,0.4316007
3192,1.155383,1.072284,0.4524074
3194,1.155383,1.072284,0.4524074
3196,1.151651,1.064041,0.4609765
3200,1.146201,1.048292,0.4817329
3202,1.146201,1.048292,0.4817329
3204,1.144321,1.042114,0.4897892
3207,1.144321,1.042114,0.4897892
3209,1.149269,1.041926,0.5024107
3211,1.149269,1.041926,0.5024107
3214,1.151141,1.041926,0.5070629
3216,1.165501,1.054434,0.5158621
3218,1.165501,1.054434,0.5158621
3221,1.170694,1.058509,0.5196414
3223,1.170694,1.058509,0.5196414
3225,1.185477,1.071371,0.5286014
3228,1.190583,1.075564,0.5319225
3230,1.190583,1.075564,0.5319225
3232,1.213214,1.095573,0.5421248
3234,1.213214,1.095573,0.5421248
3237,1.221252,1.102517,0.5460806
3239,1.221252,1.102517,0.5460806
3241,1.244269,1.122393,0.5570779
3245,1.252421,1.129346,0.5612772
3247,1.252421,1.129346,0.5612772
3249,1.308657,1.188444,0.5671728
3252,1.308657,1.188444,0.5671728
3254,1.330015,1.210307,0.5699261
3256,1.357971,1.239542,0.5730078
3259,1.357971,1.239542,0.5730078
3261,1.401234,1.284204,0.5784457
3263,1.401234,1.284204,0.5784457
3266,1.404024,1.283442,0.5855064
3268,1.404024,1.283442,0.5855064
3270,1.409588,1.283289,0.5970887
3273,1.409588,1.283289,0.5970887
3275,1.409588,1.283289,0.5970887
3277,1.409588,1.283289,0.5970887
3280,1.409588,1.283289,0.5970887
3282,1.424915,1.299052,0.5993783
3284,1.458308,1.335155,0.6006827
3288,1.458308,1.335155,0.6006827
3290,1.451043,1.326184,0.6029587
3292,1.451043,1.326184,0.6029587
3295,1.441844,1.313731,0.6071628
3297,1.441844,1.313731,0.6071628
3299,1.440757,1.310898,0.6116581
3302,1.440486,1.308657,0.6158028
3304,1.440486,1.308657,0.6158028
3306,1.442522,1.308358,0.6221254
3309,1.442522,1.308358,0.6221254
3311,1.444556,1.309404,0.6246366
3313,1.444556,1.309404,0.6246366
3316,1.44442,1.309853,0.6246366
3318,1.445097,1.310898,0.6255757
3320,1.445097,1.310898,0.6255757
3322,1.445774,1.31239,0.6246366
3325,1.445774,1.31239,0.6246366
3328,1.446451,1.313731,0.6240098
3330,1.449829,1.320269,0.6199199
3333,1.449829,1.320269,0.6199199
3335,1.452122,1.32456,0.6170725
3337,1.452122,1.32456,0.6170725
3340,1.450639,1.326332,0.6113381
3342,1.450639,1.326332,0.6113381
3344,1.447938,1.325004,0.608772
3347,1.441572,1.32249,0.5993783
3349,1.441572,1.32249,0.5993783
3351,1.438311,1.321306,0.5938025
3354,1.438311,1.321306,0.5938025
3356,1.432038,1.322194,0.5784457
3358,1.429303,1.323526,0.5699261
3361,1.429303,1.323526,0.5699261
3363,1.427385,1.324708,0.563365
3365,1.427385,1.324708,0.563365
3368,1.421064,1.328691,0.5414024
3371,1.421064,1.328691,0.5414024
3373,1.418997,1.33031,0.5341251
3376,1.382676,1.305813,0.5024107
3378,1.382676,1.305813,0.5024107
3380,1.37202,1.302662,0.4865827
3383,1.37202,1.302662,0.4865827
3385,1.363149,1.299804,0.4739525
3387,1.355952,1.297393,0.4635163
3390,1.355952,1.297393,0.4635163
3392,1.341734,1.294676,0.4410186
3394,1.341734,1.294676,0.4410186
3397,1.336327,1.293466,0.4334104
3399,1.336327,1.293466,0.4334104
3401,1.294524,1.263465,0.4063823
3403,1.275642,1.251326,0.3906707
3406,1.275642,1.251326,0.3906707
3408,1.246783,1.232735,0.3669084
3410,1.246783,1.232735,0.3669084
3414,1.235589,1.225411,0.3577275
3416,1.235589,1.225411,0.3577275
3418,1.223653,1.218686,0.3460502
3421,1.220771,1.228601,0.3165179
3423,1.220771,1.228601,0.3165179
3425,1.226848,1.241277,0.3000144
3428,1.226848,1.241277,0.3000144
3430,1.24112,1.267486,0.2654082
3432,1.248665,1.280847,0.2478722
3435,1.248665,1.280847,0.2478722
3437,1.262071,1.302962,0.2176059
3439,1.262071,1.302962,0.2176059
3442,1.267795,1.312241,0.2046302
3444,1.267795,1.312241,0.2046302
3446,1.272571,1.319973,0.191797
3449,1.284966,1.337059,0.1678588
3451,1.284966,1.337059,0.1678588
3453,1.289678,1.343629,0.1570175
3457,1.289678,1.343629,0.1570175
3459,1.295431,1.352629,0.1426525
3461,1.297695,1.356241,0.1384764
3464,1.297695,1.356241,0.1384764
3466,1.299353,1.359843,0.1282043
3468,1.299353,1.359843,0.1282043
3471,1.299955,1.361713,0.1235407
3473,1.299955,1.361713,0.1235407
3475,1.304763,1.367735,0.1186941
3478,1.306562,1.370165,0.1153499
3480,1.306562,1.370165,0.1153499
3482,1.314029,1.378282,0.1119058
3485,1.314029,1.378282,0.1119058
3487,1.325151,1.390298,0.1046783
3489,1.325151,1.390298,0.1046783
3491,1.333395,1.398578,0.1027921
3494,1.34523,1.410976,0.09691329
3496,1.34523,1.410976,0.09691329
3499,1.349732,1.414992,0.09691329
3502,1.349732,1.414992,0.09691329
3504,1.355952,1.421202,0.09278741
3506,1.358547,1.423678,0.09065409
3509,1.358547,1.423678,0.09065409
3511,1.357394,1.422578,0.09065409
3513,1.357394,1.422578,0.09065409
3516,1.352629,1.417341,0.09278741
3518,1.352629,1.417341,0.09278741
3520,1.349587,1.413885,0.09691329
3523,1.340859,1.404581,0.1008706
3525,1.340859,1.404581,0.1008706
3527,1.337937,1.401373,0.1008706
3530,1.337937,1.401373,0.1008706
3532,1.331339,1.394233,0.1046783
3534,1.329132,1.392127,0.1065312
3537,1.329132,1.392127,0.1065312
3539,1.331339,1.392408,0.1119058
3542,1.331339,1.392408,0.1119058
3545,1.332367,1.392689,0.1083524
3547,1.332367,1.392689,0.1083524
3549,1.312986,1.37145,0.1219466
3552,1.284204,1.339399,0.1384764
3554,1.284204,1.339399,0.1384764
3556,1.284813,1.33896,0.1412742
3559,1.284813,1.33896,0.1412742
3561,1.285118,1.337352,0.14537
3563,1.213214,1.269646,0.1384764
3566,1.213214,1.269646,0.1384764
3568,1.103226,1.166507,0.1251145
3570,1.103226,1.166507,0.1251145
3573,1.090919,1.15216,0.1356209
3575,1.090919,1.15216,0.1356209
3577,1.069543,1.127091,0.1480375
3579,1.074472,1.128479,0.1607126
3582,1.074472,1.128479,0.1607126
3585,1.078834,1.127091,0.1769387
3587,1.078834,1.127091,0.1769387
3590,1.088585,1.133151,0.1866263
3592,1.088585,1.133151,0.1866263
3594,1.100207,1.139523,0.2017412
3597,1.108888,1.145347,0.2102893
3599,1.108888,1.145347,0.2102893
3601,1.115047,1.148929,0.2176059
3604,1.115047,1.148929,0.2176059
3606,1.127785,1.157075,0.23239
3608,1.134014,1.160958,0.2398483
3611,1.134014,1.160958,0.2398483
3613,1.145347,1.168351,0.2525642
3615,1.145347,1.168351,0.2525642
3618,1.15012,1.171529,0.2579304
3620,1.15012,1.171529,0.2579304
3622,1.158258,1.176031,0.2690692
3625,1.161296,1.177859,0.2741124
3628,1.161296,1.177859,0.2741124
3630,1.166843,1.180183,0.2839303
3633,1.166843,1.180183,0.2839303
3635,1.169188,1.181674,0.2887141
3637,1.170527,1.182006,0.2920831
3640,1.170527,1.182006,0.2920831
3642,1.18068,1.189761,0.301316
3644,1.18068,1.189761,0.301316
3647,1.18366,1.191897,0.3051875
3649,1.18366,1.191897,0.3051875
3651,1.196813,1.202196,0.3146578
3654,1.20073,1.205122,0.3189811
3656,1.20073,1.205122,0.3189811
3658,1.20788,1.209337,0.3274564
3661,1.20788,1.209337,0.3274564
3663,1.20966,1.210469,0.3310224
3665,1.219007,1.217079,0.3386196
3667,1.219007,1.217079,0.3386196
3671,1.221733,1.218846,0.3409232
3673,1.221733,1.218846,0.3409232
3675,1.224772,1.220771,0.3449174
3678,1.224772,1.220771,0.3449174
3680,1.228442,1.222533,0.3505445
3682,1.231782,1.224772,0.3538778
3685,1.231782,1.224772,0.3538778
3687,1.235906,1.227167,0.358274
3689,1.235906,1.227167,0.358274
3692,1.240173,1.230829,0.3599087
3694,1.240173,1.230829,0.3599087
3696,1.246312,1.234955,0.365305
3699,1.248195,1.235747,0.3674413
3701,1.248195,1.235747,0.3674413
3703,1.250231,1.236539,0.3716771
3706,1.250231,1.236539,0.3716771
3708,1.251795,1.237646,0.373777
3710,1.253358,1.238279,0.3753442
3714,1.253358,1.238279,0.3753442
3716,1.254606,1.240016,0.3763854
3718,1.254606,1.240016,0.3763854
3721,1.257722,1.243325,0.3774237
3723,1.257722,1.243325,0.3774237
3725,1.259277,1.244898,0.3774237
3728,1.261295,1.247411,0.3784592
3730,1.261295,1.247411,0.3784592
3732,1.261605,1.248038,0.3784592
3735,1.261605,1.248038,0.3784592
3737,1.260674,1.248195,0.3753442
3739,1.259898,1.248352,0.373777
3742,1.259898,1.248352,0.373777
3744,1.259121,1.247881,0.3722032
3746,1.258344,1.247568,0.3716771
3749,1.258655,1.248665,0.3685048
3751,1.258655,1.248665,0.3685048
3753,1.258655,1.249292,0.3669084
3756,1.258344,1.250857,0.3631561
3759,1.258344,1.250857,0.3631561
3761,1.258033,1.251639,0.3609945
3763,1.258033,1.251639,0.3609945
3766,1.256788,1.253201,0.3544303
3768,1.256788,1.253201,0.3544303
3770,1.256165,1.25367,0.3522151
3773,1.254294,1.253201,0.3488659
3775,1.252733,1.252577,0.3466151
3777,1.251326,1.252421,0.3443497
3780,1.251326,1.252421,0.3443497
3782,1.248195,1.251014,0.3409232
3784,1.24694,1.250388,0.3386196
3787,1.24694,1.250388,0.3386196
3789,1.244584,1.249135,0.3368816
3791,1.244584,1.249135,0.3368816
3794,1.241277,1.24694,0.3345502
3796,1.241277,1.24694,0.3345502
3799,1.239069,1.24537,0.332791
3802,1.235431,1.24301,0.3310224
3804,1.235431,1.24301,0.3310224
3806,1.236381,1.24364,0.3316129
3809,1.236381,1.24364,0.3316129
3811,1.237014,1.244584,0.3310224
3813,1.23733,1.244741,0.3310224
3816,1.23733,1.244741,0.3310224
3818,1.237488,1.244741,0.3333784
3820,1.237488,1.244741,0.3333784
3823,1.236222,1.24301,0.3345502
3825,1.236222,1.24301,0.3345502
3827,1.233846,1.240489,0.3374619
3830,1.234163,1.239542,0.3403488
3832,1.234163,1.239542,0.3403488
3834,1.233687,1.237962,0.3443497
3837,1.233687,1.237962,0.3443497
3840,1.236697,1.239542,0.3483046
3842,1.240805,1.241435,0.3527702
3844,1.240805,1.241435,0.3527702
3847,1.242853,1.242066,0.3566318
3849,1.242853,1.242066,0.3566318
3851,1.244584,1.242696,0.3599087
3854,1.244584,1.242696,0.3599087
3856,1.248352,1.243955,0.364769
3858,1.250231,1.244898,0.3679734
3861,1.250231,1.244898,0.3679734
3863,1.252108,1.244426,0.3722032
3865,1.252108,1.244426,0.3722032
3868,1.252421,1.243483,0.3743001
3870,1.252421,1.243483,0.3743001
3872,1.252577,1.242853,0.3753442
3875,1.254762,1.243325,0.3784592
3877,1.254762,1.243325,0.3784592
3879,1.255542,1.24364,0.3794918
3883,1.255542,1.24364,0.3794918
3885,1.254294,1.241435,0.3815487
3887,1.253982,1.240647,0.3830841
3890,1.253982,1.240647,0.3830841
3892,1.253514,1.240173,0.3820612
3894,1.253514,1.240173,0.3820612
3897,1.253201,1.240016,0.3820612
3899,1.253201,1.240016,0.3820612
3901,1.251483,1.238595,0.3810355
3904,1.251014,1.237962,0.3810355
3906,1.251014,1.237962,0.3810355
3908,1.250075,1.236856,0.3805216
3911,1.250075,1.236856,0.3805216
3913,1.248508,1.235747,0.3800071
3915,1.245527,1.233211,0.3784592
3918,1.245527,1.233211,0.3784592
3920,1.244741,1.232259,0.3779418
3922,1.244741,1.232259,0.3779418
3926,1.244898,1.232894,0.3763854
3928,1.244898,1.23337,0.3758652
3930,1.244898,1.233687,0.3748225
3932,1.245212,1.234163,0.373777
3935,1.245212,1.234163,0.373777
3937,1.245841,1.234797,0.3727285
3939,1.245841,1.234797,0.3727285
3942,1.246312,1.236222,0.3700944
3944,1.246312,1.236222,0.3700944
3946,1.247724,1.238279,0.3674413
3949,1.24694,1.238121,0.3658403
3951,1.24694,1.238121,0.3658403
3953,1.24694,1.237962,0.364769
3956,1.24694,1.237962,0.364769
3958,1.24694,1.237962,0.364769
3960,1.24694,1.238279,0.3631561
3963,1.24694,1.238279,0.3631561
3965,1.245841,1.237962,0.3609945
3968,1.245841,1.237962,0.3609945
3971,1.244112,1.237172,0.358274
3973,1.244112,1.237172,0.358274
3975,1.242066,1.235906,0.3555328
3978,1.239226,1.234321,0.3516591
3980,1.239226,1.234321,0.3516591
3982,1.238279,1.234163,0.3505445
3985,1.238279,1.234163,0.3505445
3987,1.236856,1.234163,0.3477423
3989,1.237646,1.236064,0.3460502
3992,1.237646,1.236064,0.3460502
3994,1.239226,1.238595,0.343781
3996,1.239226,1.238595,0.343781
3999,1.237488,1.238121,0.3414966
4001,1.237488,1.238121,0.3414966
4003,1.235272,1.236856,0.339197
4006,1.234004,1.236539,0.3380413
4008,1.234004,1.236539,0.3380413
4011,1.232735,1.235906,0.3368816
4013,1.232735,1.235906,0.3368816
4016,1.23337,1.236856,0.3363003
4018,1.234004,1.237962,0.3357179
4020,1.234004,1.237962,0.3357179
4023,1.236064,1.240805,0.3339648
4025,1.236064,1.240805,0.3339648
4027,1.23733,1.24301,0.332791
4030,1.23733,1.24301,0.332791
4032,1.240331,1.247097,0.3304307
4034,1.24175,1.249292,0.3292442
4037,1.24175,1.249292,0.3292442
4039,1.241593,1.249918,0.3280534
4041,1.241593,1.249918,0.3280534
4044,1.241277,1.250701,0.3256589
4046,1.241277,1.250701,0.3256589
4048,1.238279,1.248978,0.324455
4051,1.234004,1.246469,0.3214254
4054,1.234004,1.246469,0.3214254
4056,1.232894,1.246469,0.3208161
4059,1.232894,1.246469,0.3208161
4061,1.230829,1.246312,0.3183671
4063,1.230511,1.246312,0.3183671
4066,1.230511,1.246312,0.3183671
4068,1.230988,1.248822,0.315899
4070,1.230988,1.248822,0.315899
4073,1.231306,1.249762,0.315279
4075,1.231306,1.249762,0.315279
4077,1.231147,1.25117,0.3090104
4080,1.232894,1.25367,0.3051875
4082,1.232894,1.25367,0.3051875
4084,1.235272,1.257099,0.3006659
4087,1.235272,1.257099,0.3006659
4089,1.237804,1.260053,0.2980514
4091,1.24175,1.264394,0.2940859
4094,1.24175,1.264394,0.2940859
4097,1.24301,1.265941,0.2927522
4099,1.24301,1.265941,0.2927522
4101,1.245055,1.268103,0.2907402
4104,1.245055,1.268103,0.2907402
4106,1.24694,1.269646,0.2907402
4108,1.249448,1.271648,0.2900664
4111,1.249448,1.271648,0.2900664
4113,1.250388,1.271648,0.2927522
4115,1.250388,1.271648,0.2927522
4118,1.251639,1.271648,0.2954137
4120,1.252733,1.271032,0.2993615
4122,1.252733,1.271032,0.2993615
4125,1.253358,1.270416,0.301316
4127,1.253358,1.270416,0.301316
4129,1.254294,1.269183,0.3071049
4132,1.254294,1.269183,0.3071049
4134,1.254606,1.26872,0.3090104
4136,1.257099,1.269183,0.315279
4140,1.257099,1.269183,0.315279
4142,1.258966,1.269954,0.3177519
4144,1.258966,1.269954,0.3177519
4147,1.262226,1.27057,0.3238513
4149,1.262226,1.27057,0.3238513
4151,1.263775,1.270108,0.3280534
4154,1.26764,1.269954,0.3374619
4156,1.26764,1.269954,0.3374619
4158,1.269954,1.270108,0.3432113
4161,1.269954,1.270108,0.3432113
4163,1.277635,1.272109,0.3566318
4165,1.282374,1.2738,0.3631561
4168,1.282374,1.2738,0.3631561
4170,1.29528,1.279778,0.3789758
4172,1.29528,1.279778,0.3789758
4175,1.302512,1.283289,0.386643
4177,1.302512,1.283289,0.386643
4179,1.308208,1.286336,0.3921704
4183,1.329279,1.2986,0.4121198
4185,1.329279,1.2986,0.4121198
4187,1.336766,1.302962,0.4191812
4189,1.336766,1.302962,0.4191812
4192,1.371735,1.32648,0.4458725
4194,1.384656,1.335009,0.4558544
4196,1.384656,1.335009,0.4558544
4199,1.414715,1.350602,0.4893896
4201,1.414715,1.350602,0.4893896
4203,1.42615,1.356673,0.5016313
4206,1.42615,1.356673,0.5016313
4208,1.448884,1.363005,0.5414024
4210,1.457771,1.365444,0.5560232
4213,1.457771,1.365444,0.5560232
4215,1.47618,1.362718,0.6016592
4217,1.47618,1.362718,0.6016592
4220,1.483849,1.362,0.6199199
4222,1.483849,1.362,0.6199199
4225,1.507271,1.37487,0.644677
4228,1.54459,1.395075,0.6847132
4230,1.54459,1.395075,0.6847132
4232,1.57458,1.4125,0.7121689
4235,1.57458,1.4125,0.7121689
4237,1.622206,1.439535,0.7569224
4239,1.64782,1.448344,0.7885751
4242,1.64782,1.448344,0.7885751
4244,1.690034,1.462997,0.8402332
4246,1.690034,1.462997,0.8402332
4249,1.706283,1.460051,0.872228
4251,1.706283,1.460051,0.872228
4253,1.735622,1.457234,0.9247154
4256,1.765692,1.473261,0.9512104
4258,1.765692,1.473261,0.9512104
4260,1.815207,1.499069,0.9958329
4263,1.815207,1.499069,0.9958329
4265,1.842813,1.510772,1.023547
4268,1.868336,1.521228,1.049412
4271,1.868336,1.521228,1.049412
4273,1.896923,1.509088,1.107122
4275,1.896923,1.509088,1.107122
4277,1.904131,1.491741,1.137804
4280,1.904131,1.491741,1.137804
4282,1.921932,1.453873,1.20561
4284,1.932392,1.434496,1.240962
4287,1.932392,1.434496,1.240962
4289,1.953645,1.391001,1.314178
4291,1.953645,1.391001,1.314178
4294,1.96533,1.368307,1.351616
4296,2.007791,1.352339,1.422853
4298,2.007791,1.352339,1.422853
4301,2.034709,1.354219,1.456294
4303,2.034709,1.354219,1.456294
4305,2.088816,1.347556,1.531485
4308,2.088816,1.347556,1.531485
4311,2.116276,1.340567,1.571719
4313,2.142106,1.334422,1.60876
4316,2.142106,1.334422,1.60876
4318,2.210188,1.326332,1.697083
4320,2.210188,1.326332,1.697083
4323,2.244197,1.319824,1.742486
4325,2.244197,1.319824,1.742486
4327,2.304862,1.309255,1.821772
4330,2.342596,1.321306,1.857832
4332,2.342596,1.321306,1.857832
4334,2.409079,1.33896,1.923968
4337,2.409079,1.33896,1.923968
4339,2.446326,1.355086,1.956948
4341,2.51178,1.379133,2.017903
4344,2.51178,1.379133,2.017903
4346,2.541604,1.388044,2.046888
4348,2.541604,1.388044,2.046888
4352,2.615839,1.44035,2.100402
4354,2.615839,1.44035,2.100402
4356,2.648706,1.460319,2.12624
4359,2.679054,1.456294,2.164556
4361,2.679054,1.456294,2.164556
4363,2.739883,1.454142,2.237209
4365,2.739883,1.454142,2.237209
4368,2.796594,1.456294,2.301888
4370,2.82168,1.432312,2.344934
4372,2.82168,1.432312,2.344934
4375,2.847645,1.412777,2.385893
4377,2.847645,1.412777,2.385893
4379,2.90124,1.372876,2.468549
4382,2.90124,1.372876,2.468549
4384,2.929375,1.353063,2.510532
4386,2.99284,1.338229,2.588987
4389,2.99284,1.338229,2.588987
4391,3.026468,1.339253,2.625847
4393,3.026468,1.339253,2.625847
4397,3.096171,1.362718,2.691955
4399,3.096171,1.362718,2.691955
4401,3.133129,1.381402,2.723977
4404,3.168297,1.396758,2.755556
4406,3.168297,1.396758,2.755556
4408,3.239847,1.404999,2.830891
4411,3.239847,1.404999,2.830891
4413,3.273391,1.408338,2.866418
4415,3.327667,1.358403,2.949023
4418,3.327667,1.358403,2.949023
4420,3.355555,1.339837,2.987734
4422,3.355555,1.339837,2.987734
4425,3.38628,1.316707,3.031057
4427,3.38628,1.316707,3.031057
4429,3.448328,1.280542,3.112818
4432,3.482734,1.265941,3.155605
4434,3.482734,1.265941,3.155605
4436,3.553138,1.222533,3.24709
4440,3.553138,1.222533,3.24709
4442,3.590197,1.196322,3.295862
4444,3.625743,1.174032,3.341172
4447,3.625743,1.174032,3.341172
4449,3.719207,1.22013,3.424169
4451,3.719207,1.22013,3.424169
4453,3.762027,1.236539,3.463794
4456,3.762027,1.236539,3.463794
4458,3.860772,1.33896,3.532136
4460,3.905201,1.376861,3.565351
4463,3.905201,1.376861,3.565351
4465,3.984182,1.443472,3.624392
4467,3.984182,1.443472,3.624392
4470,4.020877,1.473261,3.652055
4472,4.041426,1.36659,3.713938
4474,4.041426,1.36659,3.713938
4477,4.057193,1.327217,3.744497
4480,4.057193,1.327217,3.744497
4482,4.067412,1.283747,3.770034
4485,4.067412,1.283747,3.770034
4487,4.078759,1.266868,3.787497
4489,4.078616,1.234797,3.797874
4492,4.078616,1.234797,3.797874
4494,4.086626,1.221733,3.810331
4496,4.086626,1.221733,3.810331
4499,4.094239,1.224932,3.817468
4501,4.094239,1.224932,3.817468
4503,4.118181,1.228282,3.841654
4506,4.109755,1.164661,3.851987
4508,4.109755,1.164661,3.851987
4510,4.111613,1.066061,3.881511
4513,4.111613,1.066061,3.881511
4515,4.101168,1.06091,3.872167
4517,4.096438,1.049598,3.870295
4520,4.096438,1.049598,3.870295
4523,4.086818,1.060541,3.857524
4525,4.086818,1.060541,3.857524
4528,4.081927,1.073743,3.848936
4530,4.081927,1.073743,3.848936
4532,4.084853,1.076837,3.851174
4535,4.082311,1.031924,3.860518
4537,4.082311,1.031924,3.860518
4539,4.078904,0.9410763,3.879594
4541,4.078904,0.9410763,3.879594
4544,4.078327,0.8961296,3.889373
4546,4.077703,0.8194832,3.90515
4548,4.077703,0.8194832,3.90515
4551,4.077607,0.7860898,3.911714
4553,4.077607,0.7860898,3.911714
4555,4.070781,0.7717707,3.907707
4558,4.070781,0.7717707,3.907707
4560,4.065968,0.7815963,3.901037
4562,4.052943,0.8118062,3.881965
4566,4.052943,0.8118062,3.881965
4568,4.045591,0.8303944,3.870902
4570,4.045591,0.8303944,3.870902
4573,4.035947,0.8663754,3.853715
4575,4.033326,0.8835954,3.847511
4577,4.033326,0.8835954,3.847511
4580,4.028468,0.9191971,3.835073
4582,4.028468,0.9191971,3.835073
4584,4.026425,0.9366996,3.829043
4587,4.026425,0.9366996,3.829043
4589,4.019464,0.9695482,3.814594
4591,4.015224,0.9847674,3.806783
4594,4.015224,0.9847674,3.806783
4596,3.999488,1.005415,3.785997
4598,3.999488,1.005415,3.785997
4601,3.989536,1.012398,3.774342
4603,3.989536,1.012398,3.774342
4605,3.982609,1.017411,3.766188
4609,3.954879,1.040234,3.732346
4611,3.954879,1.040234,3.732346
4613,3.946006,1.048105,3.72126
4616,3.946006,1.048105,3.72126
4618,3.922063,1.17653,3.659767
4620,3.915417,1.224613,3.637765
4622,3.915417,1.224613,3.637765
4625,3.882217,1.31388,3.573579
4627,3.882217,1.31388,3.573579
4629,3.871358,1.348572,3.549886
4632,3.871358,1.348572,3.549886
4634,3.846646,1.362144,3.519698
4636,3.846646,1.362144,3.519698
4639,3.846646,1.362144,3.519698
4641,3.808841,1.361281,3.481497
4643,3.808841,1.361281,3.481497
4646,3.777713,1.361856,3.44952
4648,3.718575,1.394093,3.375799
4651,3.718575,1.394093,3.375799
4654,3.696287,1.40806,3.347143
4656,3.696287,1.40806,3.347143
4658,3.657733,1.379843,3.318417
4661,3.657733,1.379843,3.318417
4663,3.642767,1.370879,3.306537
4665,3.618661,1.354364,3.287297
4668,3.618661,1.354364,3.287297
4670,3.579984,1.332221,3.255039
4672,3.579984,1.332221,3.255039
4675,3.550162,1.312092,3.231194
4677,3.550162,1.312092,3.231194
4679,3.502467,1.283289,3.19163
4682,3.477164,1.258655,3.174532
4684,3.477164,1.258655,3.174532
4686,3.435928,1.222694,3.145165
4689,3.435928,1.222694,3.145165
4691,3.405651,1.194521,3.12393
4694,3.355438,1.151821,3.087179
4697,3.355438,1.151821,3.087179
4699,3.32596,1.134704,3.062605
4701,3.32596,1.134704,3.062605
4704,3.277157,1.108358,3.021419
4706,3.277157,1.108358,3.021419
4708,3.250223,1.075382,3.004526
4710,3.204607,1.024502,2.973943
4713,3.204607,1.024502,2.973943
4715,3.17823,1.045301,2.940048
4717,3.17823,1.045301,2.940048
4720,3.154364,1.061647,2.910066
4722,3.103371,1.115222,2.838901
4724,3.103371,1.115222,2.838901
4727,3.081658,1.134704,2.809234
4729,3.081658,1.134704,2.809234
4731,3.040343,1.171529,2.752073
4734,3.040343,1.171529,2.752073
4737,3.020576,1.188774,2.72448
4739,2.980649,1.21402,2.672323
4742,2.980649,1.21402,2.672323
4744,2.961013,1.223173,2.647967
4746,2.961013,1.223173,2.647967
4749,2.917322,1.216275,2.604966
4751,2.894418,1.204473,2.585886
4753,2.894418,1.204473,2.585886
4756,2.849981,1.176031,2.551213
4758,2.849981,1.176031,2.551213
4760,2.827847,1.16079,2.534432
4763,2.827847,1.16079,2.534432
4765,2.786637,1.132979,2.50288
4767,2.767394,1.120299,2.487899
4770,2.767394,1.120299,2.487899
4772,2.728643,1.092711,2.458458
4774,2.728643,1.092711,2.458458
4777,2.709278,1.078653,2.443765
4780,2.709278,1.078653,2.443765
4782,2.672323,1.050716,2.415812
4785,2.654391,1.03722,2.402244
4787,2.654391,1.03722,2.402244
4789,2.636559,1.025648,2.387943
4792,2.636559,1.025648,2.387943
4794,2.609921,1.00561,2.366205
4796,2.596688,0.9975998,2.355095
4798,2.596688,0.9975998,2.355095
4801,2.57633,0.9793876,2.338415
4803,2.57633,0.9793876,2.338415
4805,2.559561,0.9638805,2.324564
4808,2.559561,0.9638805,2.324564
4810,2.552363,0.9565441,2.318493
4812,2.544067,0.9499753,2.311306
4815,2.544067,0.9499753,2.311306
4817,2.529949,0.9283059,2.300867
4819,2.529949,0.9283059,2.300867
4823,2.52189,0.91941,2.294393
4825,2.510688,0.9002688,2.286018
4827,2.510688,0.9002688,2.286018
4830,2.503662,0.892629,2.280189
4832,2.503662,0.892629,2.280189
4834,2.496459,0.8758101,2.274775
4837,2.496459,0.8758101,2.274775
4839,2.491201,0.8690815,2.270296
4841,2.485852,0.8531751,2.266845
4844,2.485852,0.8531751,2.266845
4846,2.481676,0.8467289,2.263389
4848,2.481676,0.8467289,2.263389
4851,2.477255,0.8336869,2.259841
4853,2.477255,0.8336869,2.259841
4855,2.473143,0.8280347,2.256287
4858,2.468865,0.8154138,2.253422
4860,2.468865,0.8154138,2.253422
4862,2.465375,0.8098756,2.250468
4866,2.465375,0.8098756,2.250468
4868,2.464422,0.8050289,2.249946
4870,2.461004,0.7935224,2.247509
4873,2.461004,0.7935224,2.247509
4875,2.458776,0.7880787,2.245941
4877,2.458776,0.7880787,2.245941
4880,2.447606,0.798929,2.22818
4882,2.447606,0.798929,2.22818
4884,2.439757,0.8122882,2.214346
4886,2.422124,0.8187665,2.191781
4889,2.422124,0.8187665,2.191781
4891,2.412407,0.8151737,2.182116
4893,2.412407,0.8151737,2.182116
4896,2.394573,0.8180492,2.161389
4898,2.386549,0.8230571,2.150768
4900,2.386549,0.8230571,2.150768
4903,2.377429,0.8259051,2.139912
4905,2.377429,0.8259051,2.139912
4908,2.37504,0.825194,2.137716
4911,2.37504,0.825194,2.137716
4913,2.368025,0.7981939,2.140278
4915,2.364054,0.7765731,2.143932
4918,2.364054,0.7765731,2.143932
4920,2.348938,0.7386047,2.141831
4922,2.348938,0.7386047,2.141831
4925,2.339001,0.7219925,2.137532
4927,2.321277,0.697174,2.128356
4929,2.321277,0.697174,2.128356
4932,2.311137,0.6901216,2.120987
4934,2.311137,0.6901216,2.120987
4936,2.301378,0.6847132,2.113778
4939,2.298314,0.6755064,2.114888
4941,2.294649,0.6682253,2.114703
4943,2.282419,0.6629335,2.107193
4946,2.282419,0.6629335,2.107193
4948,2.274431,0.6638185,2.100868
4951,2.274431,0.6638185,2.100868
4954,2.259408,0.6658786,2.088629
4956,2.259408,0.6658786,2.088629
4958,2.256547,0.6652907,2.088067
4961,2.252728,0.6652907,2.086472
4963,2.252728,0.6652907,2.086472
4965,2.246028,0.6682253,2.084408
4968,2.246028,0.6682253,2.084408
4970,2.242016,0.6696879,2.082153
4972,2.218762,0.6901216,2.059661
4974,2.218762,0.6901216,2.059661
4977,2.208505,0.6985759,2.04985
4979,2.208505,0.6985759,2.04985
4981,2.193477,0.7181882,2.035671
4984,2.193477,0.7181882,2.035671
4986,2.186059,0.7268545,2.028929
4988,2.173128,0.7465102,2.014117
4992,2.173128,0.7465102,2.014117
4994,2.150586,0.7785863,1.988988
4996,2.150586,0.7785863,1.988988
4999,2.136617,0.8016186,1.972289
5001,2.111832,0.8402332,1.943601
5003,2.111832,0.8402332,1.943601
5006,2.09947,0.8784871,1.922339
5008,2.09947,0.8784871,1.922339
5010,2.07839,0.9396197,1.886682
5013,2.07839,0.9396197,1.886682
5015,2.06933,0.9793876,1.867079
5017,2.052808,1.04399,1.833657
5020,2.052808,1.04399,1.833657
5022,2.048418,1.071371,1.82306
5024,2.048418,1.071371,1.82306
5027,2.038073,1.118901,1.802223
5029,2.033458,1.149099,1.79144
5031,2.033458,1.149099,1.79144
5035,2.023521,1.20073,1.771004
5037,2.023521,1.20073,1.771004
5039,2.014506,1.232259,1.755354
5042,2.014506,1.232259,1.755354
5044,1.997628,1.2874,1.727257
5046,1.984062,1.314625,1.708804
5049,1.984062,1.314625,1.708804
5051,1.971594,1.340129,1.69177
5053,1.971594,1.340129,1.69177
5056,1.925696,1.367878,1.648651
5058,1.925696,1.367878,1.648651
5060,1.896304,1.373873,1.624617
5062,1.83323,1.391283,1.56673
5065,1.83323,1.391283,1.56673
5067,1.800159,1.40235,1.534421
5069,1.800159,1.40235,1.534421
5072,1.754351,1.433677,1.486879
5074,1.738663,1.452122,1.469404
5076,1.738663,1.452122,1.469404
5080,1.710178,1.4878,1.437766
5082,1.710178,1.4878,1.437766
5084,1.696736,1.505322,1.423128
5087,1.696736,1.505322,1.423128
5089,1.664129,1.541039,1.385221
5091,1.645681,1.55972,1.363149
5094,1.645681,1.55972,1.363149
5096,1.613982,1.597407,1.317301
5098,1.613982,1.597407,1.317301
5101,1.600956,1.6158,1.294827
5103,1.588315,1.633866,1.2738
5105,1.588315,1.633866,1.2738
5108,1.554819,1.656467,1.225411
5110,1.554819,1.656467,1.225411
5112,1.539768,1.669178,1.203335
5115,1.539768,1.669178,1.203335
5117,1.501417,1.688528,1.15012
5120,1.484113,1.700193,1.125527
5123,1.484113,1.700193,1.125527
5125,1.431628,1.704791,1.079922
5127,1.431628,1.704791,1.079922
5130,1.409172,1.710407,1.058694
5132,1.409172,1.710407,1.058694
5134,1.361425,1.696852,1.026601
5137,1.282984,1.685163,0.9695482
5139,1.282984,1.685163,0.9695482
5141,1.234797,1.672223,0.9335608
5144,1.234797,1.672223,0.9335608
5146,1.154366,1.660243,0.8699816
5148,1.101806,1.646632,0.826142
5150,1.101806,1.646632,0.826142
5153,1.015293,1.632068,0.751474
5155,1.015293,1.632068,0.751474
5157,0.985562,1.631229,0.7143636
5160,0.985562,1.631229,0.7143636
5163,0.9318824,1.634944,0.6474031
5165,0.912574,1.638531,0.6110179
5168,0.912574,1.638531,0.6110179
5170,0.8780415,1.647939,0.5460806
5172,0.8780415,1.647939,0.5460806
5175,0.8625273,1.659182,0.4988932
5177,0.8374339,1.680512,0.416371
5179,0.8374339,1.680512,0.416371
5182,0.8318071,1.693157,0.3700944
5184,0.8318071,1.693157,0.3700944
5186,0.7952467,1.696736,0.276953
5189,0.7952467,1.696736,0.276953
5191,0.7684676,1.691076,0.2306999
5193,0.7462481,1.6876,0.1876719
5196,0.7462481,1.6876,0.1876719
5198,0.688134,1.659772,0.09487279
5200,0.688134,1.659772,0.09487279
5203,0.6667597,1.651142,0.05595291
5206,0.6208661,1.61822,-0.03956468
5208,0.6208661,1.61822,-0.03956468
5211,0.6065179,1.607299,-0.07661668
5213,0.6065179,1.607299,-0.07661668
5215,0.614212,1.5952,-0.1594904
5218,0.614212,1.5952,-0.1594904
5220,0.6205508,1.591639,-0.1968319
5222,0.6351982,1.579048,-0.2661444
5225,0.6351982,1.579048,-0.2661444
5227,0.644677,1.575077,-0.3006659
5229,0.644677,1.575077,-0.3006659
5231,0.6567059,1.568728,-0.332791
5234,0.6567059,1.568728,-0.332791
5236,0.6824232,1.559845,-0.3951527
5238,0.6985759,1.553686,-0.4270431
5241,0.6985759,1.553686,-0.4270431
5243,0.7322189,1.544844,-0.4889896
5245,0.7322189,1.544844,-0.4889896
5249,0.7553698,1.516977,-0.5602303
5251,0.7702479,1.506752,-0.5941319
5253,0.7702479,1.506752,-0.5941319
5256,0.7850935,1.493183,-0.6271377
5258,0.7850935,1.493183,-0.6271377
5260,0.8201992,1.472596,-0.6926687
5263,0.8201992,1.472596,-0.6926687
5265,0.8353283,1.459247,-0.7219925
5267,0.8717791,1.438583,-0.7828471
5270,0.8717791,1.438583,-0.7828471
5272,0.8838168,1.423678,-0.8089085
5274,0.8838168,1.423678,-0.8089085
5277,0.9142877,1.400535,-0.8616194
5279,0.9238687,1.386069,-0.8840382
5281,0.9238687,1.386069,-0.8840382
5284,0.9516218,1.363005,-0.9316724
5286,0.9516218,1.363005,-0.9316724
5288,0.960423,1.350747,-0.9505931
5292,0.960423,1.350747,-0.9505931
5294,0.9723696,1.339983,-0.9711614
5296,0.993472,1.320417,-1.008136
5299,0.993472,1.320417,-1.008136
5301,1.003662,1.311495,-1.025075
5303,1.016063,1.303713,-1.04324
5306,1.021442,1.296337,-1.054248
5308,1.030216,1.289678,-1.067896
5310,1.030216,1.289678,-1.067896
5313,1.041362,1.283899,-1.08354
5315,1.041362,1.283899,-1.08354
5317,1.049038,1.279166,-1.094858
5319,1.049038,1.279166,-1.094858
5322,1.049038,1.279166,-1.094858
5324,1.053877,1.274568,-1.103226
5326,1.053877,1.274568,-1.103226
5329,1.061831,1.269954,-1.115398
5331,1.061831,1.269954,-1.115398
5334,1.06496,1.269029,-1.119775
5337,1.06496,1.269029,-1.119775
5339,1.071006,1.26764,-1.127264
5341,1.066245,1.265013,-1.123265
5344,1.066245,1.265013,-1.123265
5346,1.06936,1.263156,-1.127264
5348,1.06936,1.263156,-1.127264
5351,1.063489,1.263001,-1.120299
5353,1.042302,1.259432,-1.097536
5355,1.042302,1.259432,-1.097536
5358,1.029266,1.256788,-1.083901
5360,1.029266,1.256788,-1.083901
5362,1.008136,1.25445,-1.061463
5365,1.008136,1.25445,-1.061463
5367,0.9997552,1.254294,-1.052391
5369,0.9948499,1.25367,-1.047358
5372,0.9948499,1.25367,-1.047358
5374,0.9767869,1.25445,-1.027744
5377,0.9767869,1.25445,-1.027744
5380,0.9731742,1.254138,-1.024311
5382,0.9600154,1.25523,-1.010075
5384,0.9600154,1.25523,-1.010075
5387,0.9358636,1.254606,-0.9911057
5389,0.9358636,1.254606,-0.9911057
5391,0.9249271,1.253514,-0.9851648
5394,0.9249271,1.253514,-0.9851648
5396,0.90309,1.252733,-0.9721684
5398,0.8928481,1.252733,-0.9657058
5401,0.8928481,1.252733,-0.9657058
5403,0.8860281,1.252733,-0.9618481
5405,0.8860281,1.252733,-0.9618481
5407,0.8550079,1.276716,-0.9140738
5410,0.8550079,1.276716,-0.9140738
5412,0.8467289,1.286183,-0.8978747
5414,0.8244823,1.299654,-0.8613922
5417,0.8244823,1.311495,-0.8318071
5420,0.798929,1.32175,-0.8081825
5422,0.798929,1.32175,-0.8081825
5425,0.7917944,1.330604,-0.7893192
5427,0.7674484,1.323674,-0.776825
5429,0.7674484,1.323674,-0.776825
5432,0.7146374,1.309105,-0.7367479
5434,0.7146374,1.309105,-0.7367479
5436,0.6952065,1.303863,-0.7219925
5439,0.6952065,1.303863,-0.7219925
5441,0.65342,1.297544,-0.6847132
5443,0.6376578,1.295129,-0.6708556
5446,0.6376578,1.295129,-0.6708556
5448,0.6330382,1.29528,-0.660568
5450,0.6330382,1.29528,-0.660568
5453,0.6255757,1.295431,-0.6440698
5455,0.6122975,1.294827,-0.6308707
5457,0.6122975,1.294827,-0.6308707
5460,0.591822,1.293466,-0.6103771
5463,0.591822,1.293466,-0.6103771
5465,0.5787839,1.292558,-0.6000308
5468,0.5787839,1.292558,-0.6000308
5470,0.5678623,1.291952,-0.5908293
5472,0.5908293,1.31522,-0.5733491
5475,0.5908293,1.31522,-0.5733491
5477,0.6013339,1.324856,-0.5661368
5479,0.6013339,1.324856,-0.5661368
5482,0.607807,1.33662,-0.5535544
5484,0.6202354,1.355952,-0.533392
5486,0.6202354,1.355952,-0.533392
5489,0.6258884,1.363005,-0.5256317
5491,0.6258884,1.363005,-0.5256317
5493,0.635814,1.375012,-0.5116726
5495,0.635814,1.375012,-0.5116726
5498,0.6416347,1.378424,-0.5082192
5500,0.6467983,1.381968,-0.5047422
5502,0.6467983,1.381968,-0.5047422
5506,0.6590852,1.387339,-0.5004597
5508,0.6590852,1.387339,-0.5004597
5510,0.6658786,1.389735,-0.4988932
5513,0.6658786,1.389735,-0.4988932
5515,0.6717301,1.392127,-0.4973219
5517,0.6892704,1.398158,-0.4973219
5520,0.6892704,1.398158,-0.4973219
5522,0.7010924,1.400535,-0.4996771
5524,0.7010924,1.400535,-0.4996771
5527,0.711069,1.402908,-0.501241
5529,0.7287365,1.405417,-0.5055169
5531,0.7287365,1.405417,-0.5055169
5534,0.7370135,1.405974,-0.508604
5536,0.7370135,1.405974,-0.508604
5538,0.749649,1.407782,-0.5112901
5541,0.749649,1.407782,-0.5112901
5543,0.7566639,1.407087,-0.5132
5545,0.7625886,1.406809,-0.5147229
5549,0.7625886,1.406809,-0.5147229
5551,0.7717707,1.397318,-0.5203939
5553,0.7717707,1.397318,-0.5203939
5556,0.7790887,1.392127,-0.5252593
5558,0.7848442,1.388467,-0.5286014
5560,0.7848442,1.388467,-0.5286014
5563,0.8030819,1.384374,-0.5450047
5565,0.8030819,1.384374,-0.5450047
5567,0.8232948,1.383525,-0.5647526
5570,0.8232948,1.383525,-0.5647526
5572,0.8209146,1.36573,-0.5878411
5574,0.8197219,1.351616,-0.6068404
5577,0.8197219,1.351616,-0.6068404
5579,0.8158936,1.320862,-0.6440698
5581,0.8158936,1.320862,-0.6440698
5583,0.814213,1.305513,-0.6620474
5586,0.814213,1.305513,-0.6620474
5588,0.8158936,1.277175,-0.697174
5591,0.8187665,1.26424,-0.7143636
5594,0.8187665,1.26424,-0.7143636
5596,0.8180492,1.236381,-0.7388696
5598,0.8180492,1.236381,-0.7388696
5601,0.8158936,1.222053,-0.7478197
5603,0.8101172,1.193702,-0.7628451
5605,0.8101172,1.193702,-0.7628451
5608,0.8067285,1.179851,-0.7689767
5610,0.8067285,1.179851,-0.7689767
5612,0.8045425,1.168184,-0.7745547
5615,0.8045425,1.168184,-0.7745547
5617,0.8062432,1.14415,-0.7908052
5619,0.8074558,1.134704,-0.7977034
5622,0.8074558,1.134704,-0.7977034
5624,0.8130105,1.116801,-0.8149337
5626,0.8130105,1.116801,-0.8149337
5629,0.8158936,1.109241,-0.8225815
5632,0.8270888,1.094322,-0.8420942
5634,0.8270888,1.094322,-0.8420942
5637,0.8318071,1.087865,-0.8506485
5639,0.8318071,1.087865,-0.8506485
5641,0.8545501,1.099851,-0.8629809
5644,0.8545501,1.099851,-0.8629809
5646,0.8638874,1.103404,-0.8690815
5648,0.8908735,1.115398,-0.8840382
5651,0.8908735,1.115398,-0.8840382
5653,0.902006,1.119251,-0.8908735
5655,0.902006,1.119251,-0.8908735
5658,0.9183452,1.124484,-0.902006
5660,0.9441901,1.13125,-0.9206861
5662,0.9441901,1.13125,-0.9206861
5665,0.9489449,1.128999,-0.9289381
5667,0.9489449,1.128999,-0.9289381
5669,0.957975,1.12431,-0.9437756
5671,0.957975,1.12431,-0.9437756
5675,0.9653005,1.121521,-0.953881
5677,0.9775878,1.116275,-0.9707584
5679,0.9775878,1.116275,-0.9707584
5682,0.987149,1.112587,-0.98238
5684,0.987149,1.112587,-0.98238
5686,1.002296,1.106061,-1.000929
5689,1.002296,1.106061,-1.000929
5691,1.015485,1.103758,-1.014329
5693,1.037032,1.099495,-1.036465
5696,1.037032,1.099495,-1.036465
5698,1.051833,1.099317,-1.050157
5700,1.051833,1.099317,-1.050157
5703,1.075018,1.09807,-1.072102
5705,1.088585,1.098605,-1.084081
5707,1.088585,1.098605,-1.084081
5710,1.10977,1.098427,-1.103226
5712,1.10977,1.098427,-1.103226
5714,1.136428,1.109946,-1.118201
5718,1.136428,1.109946,-1.118201
5720,1.159272,1.11995,-1.131077
5722,1.205447,1.142438,-1.155383
5725,1.205447,1.142438,-1.155383
5727,1.227964,1.154705,-1.167011
5729,1.227964,1.154705,-1.167011
5732,1.26872,1.177859,-1.186797
5734,1.287248,1.188774,-1.195504
5736,1.287248,1.188774,-1.195504
5739,1.317598,1.206421,-1.209499
5741,1.317598,1.206421,-1.209499
5743,1.330015,1.213537,-1.214826
5746,1.330015,1.213537,-1.214826
5748,1.349587,1.22605,-1.222213
5750,1.357394,1.231306,-1.224453
5753,1.357394,1.231306,-1.224453
5755,1.346393,1.220932,-1.220771
5757,1.346393,1.220932,-1.220771
5760,1.332514,1.208851,-1.216436
5763,1.300105,1.184651,-1.203498
5765,1.300105,1.184651,-1.203498
5767,1.283137,1.172865,-1.195995
5770,1.283137,1.172865,-1.195995
5772,1.269646,1.163316,-1.190419
5774,1.269646,1.163316,-1.190419
5777,1.235747,1.144492,-1.172197
5779,1.223653,1.13746,-1.165836
5781,1.222053,1.143979,-1.159441
5784,1.220932,1.149099,-1.154536
5786,1.220932,1.149099,-1.154536
5788,1.216597,1.155891,-1.145005
5791,1.216597,1.155891,-1.145005
5793,1.211115,1.165333,-1.131596
5795,1.209175,1.168686,-1.127091
5798,1.209175,1.168686,-1.127091
5800,1.196485,1.173699,-1.111003
5803,1.196485,1.173699,-1.111003
5806,1.192226,1.175365,-1.105353
5808,1.174532,1.180349,-1.084983
5810,1.174532,1.180349,-1.084983
5813,1.168351,1.182006,-1.077927
5815,1.168351,1.182006,-1.077927
5817,1.143294,1.168351,-1.05462
5820,1.143294,1.168351,-1.05462
5822,1.134187,1.163316,-1.04605
5824,1.107475,1.146713,-1.022399
5827,1.107475,1.146713,-1.022399
5829,1.097357,1.140209,-1.013363
5831,1.097357,1.140209,-1.013363
5834,1.076655,1.130039,-0.9922896
5836,1.068994,1.125701,-0.98437
5838,1.068994,1.125701,-0.98437
5840,1.059987,1.123961,-0.9733753
5843,1.059987,1.123961,-0.9733753
5846,1.046611,1.120474,-0.9571576
5848,1.046611,1.120474,-0.9571576
5851,1.040234,1.120823,-0.948326
5853,1.032682,1.126222,-0.9329317
5855,1.032682,1.126222,-0.9329317
5858,1.030596,1.130039,-0.9264069
5860,1.030596,1.130039,-0.9264069
5862,1.027363,1.134532,-0.9159984
5865,1.027363,1.134532,-0.9159984
5867,1.027744,1.139008,-0.9115012
5869,1.030786,1.148247,-0.9056864
5872,1.030786,1.148247,-0.9056864
5874,1.033061,1.15267,-0.9037398
5876,1.033061,1.15267,-0.9037398
5879,1.038352,1.160621,-0.902006
5881,1.040987,1.163988,-0.901789
5883,1.040987,1.163988,-0.901789
5886,1.044365,1.168519,-0.9011378
5889,1.044365,1.168519,-0.9011378
5891,1.048852,1.171696,-0.9028733
5894,1.048852,1.171696,-0.9028733
5896,1.052205,1.174032,-0.9041728
5898,1.055918,1.172865,-0.9115012
5901,1.055918,1.172865,-0.9115012
5903,1.057214,1.172197,-0.9134313
5905,1.057214,1.172197,-0.9134313
5908,1.059618,1.168351,-0.9208986
5910,1.060356,1.167011,-0.9234449
5912,1.060356,1.167011,-0.9234449
5915,1.059987,1.159947,-0.9297802
5917,1.059987,1.159947,-0.9297802
5919,1.059433,1.157244,-0.9318824
5922,1.059433,1.157244,-0.9318824
5924,1.059063,1.14995,-0.9385778
5926,1.058694,1.147224,-0.9408684
5928,1.058694,1.147224,-0.9408684
5932,1.060356,1.141067,-0.948326
5934,1.060356,1.141067,-0.948326
5936,1.061278,1.138664,-0.9510047
5939,1.066612,1.135049,-0.9587917
5941,1.066612,1.135049,-0.9587917
5943,1.068628,1.133151,-0.9616448
5946,1.068628,1.133151,-0.9616448
5948,1.074108,1.128826,-0.9691444
5950,1.074108,1.128826,-0.9691444
5953,1.076292,1.126917,-0.9715644
5955,1.077018,1.119775,-0.9827783
5957,1.077018,1.119775,-0.9827783
5960,1.078834,1.108535,-0.9997552
5962,1.078834,1.108535,-0.9997552
5964,1.088944,1.118201,-1.005221
5967,1.088944,1.118201,-1.005221
5969,1.103758,1.132115,-1.014136
5971,1.114345,1.142438,-1.01914
5975,1.114345,1.142438,-1.01914
5977,1.130039,1.157583,-1.026982
5979,1.130039,1.157583,-1.026982
5982,1.127438,1.155213,-1.030216
5984,1.123961,1.151481,-1.035143
5986,1.123961,1.151481,-1.035143
5989,1.123091,1.147224,-1.039482
5991,1.123091,1.147224,-1.039482
5993,1.12187,1.141067,-1.046798
5996,1.12187,1.141067,-1.046798
5998,1.125353,1.137976,-1.052948
6000,1.130212,1.133324,-1.062568
6003,1.130212,1.133324,-1.062568
6005,1.154366,1.14603,-1.074108
6007,1.154366,1.14603,-1.074108
6010,1.19124,1.16634,-1.091815
6012,1.19124,1.16634,-1.091815
6014,1.19124,1.16634,-1.091815
6017,1.219809,1.182667,-1.104644
6020,1.219809,1.182667,-1.104644
6022,1.219809,1.182667,-1.104644
6024,1.219809,1.182667,-1.104644
6027,1.256476,1.205772,-1.120474
6029,1.319973,1.246155,-1.148929
6031,1.319973,1.246155,-1.148929
6034,1.34712,1.26362,-1.161801
6036,1.34712,1.26362,-1.161801
6038,1.393672,1.292861,-1.185642
6041,1.393672,1.292861,-1.185642
6043,1.413608,1.305063,-1.196322
6045,1.430261,1.308059,-1.213859
6048,1.430261,1.308059,-1.213859
6050,1.430534,1.302361,-1.220932
6052,1.430534,1.302361,-1.220932
6055,1.431902,1.298298,-1.227326
6057,1.426425,1.280083,-1.240489
6060,1.426425,1.280083,-1.240489
6063,1.425738,1.274107,-1.245998
6065,1.425738,1.274107,-1.245998
6067,1.424365,1.259277,-1.259432
6070,1.424365,1.259277,-1.259432
6072,1.428755,1.250231,-1.273339
6074,1.432721,1.247097,-1.280694
6077,1.432721,1.247097,-1.280694
6079,1.436404,1.244898,-1.287096
6081,1.436404,1.244898,-1.287096
6084,1.449289,1.240489,-1.304613
6086,1.454546,1.239384,-1.311495
6088,1.471666,1.246469,-1.323674
6091,1.486484,1.252889,-1.334275
6093,1.486484,1.252889,-1.334275
6095,1.49933,1.258344,-1.343483
6098,1.49933,1.258344,-1.343483
6100,1.510384,1.25367,-1.359555
6103,1.515428,1.252264,-1.36616
6105,1.515428,1.252264,-1.36616
6108,1.518653,1.242696,-1.37814
6110,1.518653,1.242696,-1.37814
6112,1.520842,1.239542,-1.383242
6115,1.538624,1.240962,-1.400256
6117,1.538624,1.240962,-1.400256
6119,1.546363,1.241908,-1.407643
6122,1.546363,1.241908,-1.407643
6124,1.536078,1.196322,-1.431765
6126,1.536078,1.196322,-1.431765
6129,1.533911,1.180017,-1.441844
6131,1.527391,1.155044,-1.4532
6133,1.527391,1.155044,-1.4532
6136,1.5211,1.118726,-1.472198
6138,1.5211,1.118726,-1.472198
6140,1.517235,1.101451,-1.479887
6144,1.517235,1.101451,-1.479887
6146,1.513878,1.075564,-1.493314
6148,1.511808,1.064408,-1.497502
6151,1.511808,1.064408,-1.497502
6153,1.510513,1.047171,-1.505712
6155,1.510513,1.047171,-1.505712
6158,1.507531,1.03854,-1.505972
6160,1.504672,1.024502,-1.50818
6162,1.504672,1.024502,-1.50818
6165,1.502199,1.017411,-1.507401
6167,1.502199,1.017411,-1.507401
6169,1.499722,1.006194,-1.50792
6172,1.499722,1.006194,-1.50792
6174,1.497502,0.9997552,-1.506492
6176,1.49554,0.990118,-1.506232
6179,1.49554,0.990118,-1.506232
6181,1.494362,0.985562,-1.504672
6183,1.494362,0.985562,-1.504672
6187,1.493838,0.9819816,-1.503891
6189,1.494493,0.9761857,-1.50298
6191,1.494493,0.9761857,-1.50298
6193,1.496456,0.9723696,-1.503241
6196,1.496456,0.9723696,-1.503241
6198,1.500374,0.9883377,-1.495802
6200,1.500374,0.9883377,-1.495802
6203,1.508569,1.01317,-1.486353
6205,1.51129,1.011431,-1.487274
6207,1.51129,1.011431,-1.487274
6210,1.516461,1.008912,-1.490034
6212,1.516461,1.008912,-1.490034
6214,1.519812,1.004052,-1.494231
6217,1.525852,0.9966185,-1.501156
6219,1.525852,0.9966185,-1.501156
6221,1.529439,0.9918951,-1.506102
6224,1.529439,0.9918951,-1.506102
6226,1.532635,0.9879416,-1.510384
6228,1.532635,0.9879416,-1.510384
6232,1.539641,0.9813836,-1.518911
6234,1.543323,0.9783881,-1.523285
6236,1.543323,0.9783881,-1.523285
6239,1.549397,0.9717657,-1.530974
6241,1.549397,0.9717657,-1.530974
6243,1.551795,0.9683364,-1.534166
6246,1.551795,0.9683364,-1.534166
6248,1.557334,0.963068,-1.540658
6250,1.560347,0.9610341,-1.543703
6253,1.560347,0.9610341,-1.543703
6255,1.562979,0.9591998,-1.54611
6257,1.562979,0.9591998,-1.54611
6260,1.572466,0.991303,-1.537479
6262,1.576567,1.003662,-1.534294
6264,1.576567,1.003662,-1.534294
6267,1.588685,1.038163,-1.524056
6269,1.588685,1.038163,-1.524056
6272,1.591761,1.052205,-1.518009
6275,1.591761,1.052205,-1.518009
6277,1.597897,1.075018,-1.508828
6279,1.600344,1.084262,-1.504412
6281,1.600344,1.084262,-1.504412
6284,1.60291,1.092532,-1.500765
6286,1.60535,1.099673,-1.497763
6288,1.606569,1.108888,-1.492003
6291,1.60803,1.117151,-1.487274
6293,1.60803,1.117151,-1.487274
6295,1.610097,1.132115,-1.477638
6298,1.610097,1.132115,-1.477638
6300,1.610826,1.144834,-1.468871
6302,1.611919,1.144834,-1.468871
6305,1.61034,1.14944,-1.462596
6307,1.609489,1.153857,-1.457234
6309,1.609489,1.153857,-1.457234
6312,1.605472,1.159272,-1.44618
6315,1.605472,1.159272,-1.44618
6317,1.603155,1.16079,-1.440757
6320,1.603155,1.16079,-1.440757
6322,1.594218,1.162138,-1.427659
6324,1.588808,1.162138,-1.420651
6327,1.588808,1.162138,-1.420651
6329,1.584738,1.162643,-1.41513
6331,1.584738,1.162643,-1.41513
6334,1.56448,1.153518,-1.395636
6336,1.557711,1.150801,-1.388749
6338,1.557711,1.150801,-1.388749
6341,1.530207,1.129692,-1.370165
6343,1.530207,1.129692,-1.370165
6345,1.520456,1.122219,-1.363292
6348,1.520456,1.122219,-1.363292
6350,1.491347,1.095037,-1.344211
6352,1.480416,1.085164,-1.337059
6355,1.480416,1.085164,-1.337059
6358,1.463398,1.067529,-1.326922
6360,1.463398,1.067529,-1.326922
6363,1.437086,1.041175,-1.311047
6365,1.408477,1.010656,-1.295733
6367,1.408477,1.010656,-1.295733
6369,1.397598,0.9989719,-1.289526
6372,1.397598,0.9989719,-1.289526
6374,1.383525,0.9813836,-1.283899
6376,1.383525,0.9813836,-1.283899
6379,1.361569,0.953881,-1.274261
6381,1.352339,0.9396197,-1.272724
6383,1.352339,0.9396197,-1.272724
6386,1.344357,0.9274623,-1.271186
6388,1.34712,0.9097822,-1.282832
6390,1.349007,0.8945997,-1.292104
6393,1.351036,0.8706562,-1.305063
6395,1.351036,0.8706562,-1.305063
6397,1.355375,0.8531751,-1.318044
6401,1.355375,0.8531751,-1.318044
6403,1.358835,0.8383681,-1.328838
6405,1.358835,0.8383681,-1.328838
6408,1.370308,0.8062432,-1.355808
6410,1.374585,0.7930291,-1.36573
6412,1.374585,0.7930291,-1.36573
6415,1.384091,0.7600183,-1.390016
6417,1.384091,0.7600183,-1.390016
6419,1.387903,0.7465102,-1.399417
6422,1.387903,0.7465102,-1.399417
6424,1.396898,0.7532945,-1.405278
6426,1.410421,0.760533,-1.414992
6429,1.410421,0.760533,-1.414992
6431,1.415269,0.7449358,-1.426013
6433,1.415269,0.7449358,-1.426013
6436,1.423403,0.719821,-1.4432
6438,1.427659,0.6996954,-1.454815
6440,1.427659,0.6996954,-1.454815
6444,1.435587,0.6673463,-1.473261
6446,1.435587,0.6673463,-1.473261
6448,1.441165,0.6489125,-1.484376
6450,1.441165,0.6489125,-1.484376
6453,1.44618,0.6330382,-1.4941
6455,1.457502,0.6036074,-1.513361
6457,1.457502,0.6036074,-1.513361
6460,1.463398,0.590498,-1.522643
6462,1.463398,0.590498,-1.522643
6464,1.476843,0.5647526,-1.542181
6467,1.484244,0.5521386,-1.5523
6469,1.484244,0.5521386,-1.5523
6471,1.497894,0.5315546,-1.569975
6474,1.497894,0.5315546,-1.569975
6476,1.504152,0.5226451,-1.57756
6478,1.504152,0.5226451,-1.57756
6481,1.514912,0.5128186,-1.58967
6483,1.523542,0.5070629,-1.598754
6486,1.523542,0.5070629,-1.598754
6489,1.527006,0.508604,-1.601445
6491,1.527006,0.508604,-1.601445
6493,1.530207,0.5070629,-1.607178
6496,1.533273,0.5070629,-1.607178
6498,1.535186,0.509757,-1.608395
6500,1.537352,0.5109072,-1.610097
6503,1.537352,0.5109072,-1.610097
6505,1.540277,0.5132,-1.612162
6507,1.540277,0.5132,-1.612162
6510,1.541293,0.513962,-1.612769
6512,1.540277,0.5154827,-1.611312
6514,1.540277,0.5154827,-1.611312
6517,1.538878,0.5158621,-1.609611
6519,1.538878,0.5158621,-1.609611
6521,1.538115,0.5154827,-1.608638
6524,1.538115,0.5154827,-1.608638
6526,1.525852,0.5521386,-1.585849
6529,1.522257,0.5657911,-1.577808
6532,1.522257,0.5657911,-1.577808
6534,1.508569,0.607807,-1.54965
6536,1.508569,0.607807,-1.54965
6538,1.504412,0.6236961,-1.539514
6541,1.484508,0.6584912,-1.504932
6543,1.484508,0.6584912,-1.504932
6545,1.477638,0.6720214,-1.491872
6548,1.477638,0.6720214,-1.491872
6550,1.456831,0.708588,-1.453065
6552,1.456831,0.708588,-1.453065
6555,1.449694,0.7228051,-1.438311
6557,1.428618,0.7522548,-1.399836
6559,1.428618,0.7522548,-1.399836
6562,1.421064,0.7641266,-1.384798
6564,1.421064,0.7641266,-1.384798
6566,1.384798,0.7241574,-1.362144
6569,1.371022,0.7096917,-1.353063
6572,1.371022,0.7096917,-1.353063
6574,1.312241,0.6590852,-1.312688
6577,1.312241,0.6590852,-1.312688
6579,1.289678,0.640108,-1.29679
6581,1.289678,0.640108,-1.29679
6584,1.227007,0.6026341,-1.247411
6586,1.202359,0.5881739,-1.227485
6588,1.202359,0.5881739,-1.227485
6591,1.136083,0.5702693,-1.162811
6593,1.136083,0.5702693,-1.162811
6595,1.109417,0.5626699,-1.136772
6598,1.109417,0.5626699,-1.136772
6600,1.070458,0.5352231,-1.106414
6602,1.008136,0.4937682,-1.056288
6605,1.008136,0.4937682,-1.056288
6607,0.9948499,0.4897892,-1.042302
6609,0.9948499,0.4897892,-1.042302
6612,0.9628648,0.4837596,-1.007165
6615,0.9518273,0.4833549,-0.9940628
6617,0.9518273,0.4833549,-0.9940628
6620,0.930201,0.4813265,-0.9693463
6622,0.930201,0.4813265,-0.9693463
6624,0.9164255,0.4873863,-0.949151
6626,0.9164255,0.4873863,-0.949151
6629,0.8910931,0.4957456,-0.9130027
6631,0.8632076,0.5120549,-0.8737969
6633,0.8632076,0.5120549,-0.8737969
6636,0.8185275,0.5355885,-0.8086666
6638,0.8185275,0.5355885,-0.8086666
6640,0.7945082,0.556375,-0.7651502
6643,0.7592455,0.5881739,-0.6935157
6645,0.7592455,0.5881739,-0.6935157
6647,0.7401926,0.5977437,-0.659382
6650,0.7401926,0.5977437,-0.659382
6652,0.7091401,0.6119779,-0.5997046
6654,0.7091401,0.6119779,-0.5997046
6658,0.6937978,0.614212,-0.5736903
6660,0.6679325,0.6180231,-0.5263757
6662,0.6679325,0.6180231,-0.5263757
6665,0.6413296,0.5908293,-0.5154827
6667,0.6413296,0.5908293,-0.5154827
6669,0.6177064,0.5685511,-0.5031891
6672,0.5891711,0.5467969,-0.4801054
6674,0.5891711,0.5467969,-0.4801054
6676,0.5814822,0.5439265,-0.4685547
6679,0.5814822,0.5439265,-0.4685547
6681,0.5970887,0.5709552,-0.4454334
6683,0.5970887,0.5709552,-0.4454334
6686,0.6016592,0.5811456,-0.4329587
6688,0.5702693,0.533025,-0.4463111
6690,0.5702693,0.533025,-0.4463111
6693,0.5570779,0.5143426,-0.4476244
6695,0.5570779,0.5143426,-0.4476244
6697,0.5442861,0.4881886,-0.4541341
6701,0.5442861,0.4881886,-0.4541341
6703,0.5374122,0.4776538,-0.4541341
6705,0.53008,0.4689721,-0.4511079
6708,0.53008,0.4689721,-0.4511079
6710,0.5192646,0.4493696,-0.4571402
6712,0.5192646,0.4493696,-0.4571402
6714,0.5192646,0.4493696,-0.4571402
6717,0.5078341,0.4215088,-0.4722982
6719,0.5078341,0.4215088,-0.4722982
6721,0.5008504,0.3743001,-0.5093729
6724,0.5008504,0.3743001,-0.5093729
6726,0.4981082,0.3571801,-0.5207698
6728,0.4981082,0.3571801,-0.5207698
6731,0.4957456,0.3426407,-0.5289715
6733,0.5039662,0.3208161,-0.5524929
6735,0.5039662,0.3208161,-0.5524929
6738,0.5185105,0.3409232,-0.5542608
6740,0.5185105,0.3409232,-0.5542608
6743,0.53008,0.3663747,-0.5492961
6746,0.5403171,0.3871488,-0.5435666
6748,0.5403171,0.3871488,-0.5435666
6750,0.5417637,0.3560827,-0.5709552
6753,0.5417637,0.3560827,-0.5709552
6755,0.5556712,0.3722032,-0.5757331
6757,0.5556712,0.3722032,-0.5757331
6760,0.5668277,0.3961419,-0.5712977
6762,0.5767518,0.4159008,-0.5671728
6764,0.5767518,0.4159008,-0.5671728
6767,0.5997046,0.4588492,-0.5612772
6769,0.5997046,0.4588492,-0.5612772
6771,0.6081289,0.4751895,-0.5581307
6774,0.6081289,0.4751895,-0.5581307
6776,0.6236961,0.5024107,-0.5549665
6778,0.6293179,0.5132,-0.5528469
6781,0.6293179,0.5132,-0.5528469
6784,0.6361217,0.5252593,-0.5514293
6786,0.6361217,0.5252593,-0.5514293
6789,0.6382713,0.5308178,-0.5503638
6791,0.6413296,0.5399548,-0.5467969
6793,0.6413296,0.5399548,-0.5467969
6796,0.6422443,0.5435666,-0.5450047
6798,0.6422443,0.5435666,-0.5450047
6800,0.6394964,0.5464389,-0.5403171
6802,0.6394964,0.5464389,-0.5403171
6805,0.6382713,0.5482264,-0.5374122
6807,0.6324196,0.5496522,-0.530449
6809,0.6324196,0.5496522,-0.530449
6812,0.6361217,0.5584812,-0.5274898
6814,0.6361217,0.5584812,-0.5274898
6816,0.6391903,0.5654452,-0.5245137
6819,0.6437659,0.5764125,-0.5188877
6821,0.6437659,0.5764125,-0.5188877
6823,0.645587,0.583833,-0.5124369
6827,0.645587,0.583833,-0.5124369
6829,0.6486109,0.5954478,-0.5020211
6831,0.6486109,0.5954478,-0.5020211
6834,0.652221,0.6042554,-0.4945601
6836,0.6575991,0.6183397,-0.4829499
6838,0.6575991,0.6183397,-0.4829499
6841,0.660568,0.6268256,-0.4743652
6843,0.660568,0.6268256,-0.4743652
6845,0.6658786,0.6407191,-0.4605518
6848,0.6658786,0.645587,-0.4519747
6850,0.6658786,0.645587,-0.4519747
6852,0.6641131,0.6528208,-0.4338616
6855,0.6641131,0.6528208,-0.4338616
6857,0.6626383,0.6555129,-0.4256662
6859,0.6626383,0.6555129,-0.4256662
6862,0.661456,0.6602717,-0.4116447
6864,0.6786853,0.6775311,-0.409739
6866,0.6786853,0.6775311,-0.409739
6870,0.6935157,0.6923862,-0.4073442
6872,0.7102429,0.7091401,-0.4044518
6874,0.7246976,0.7233464,-0.4020255
6877,0.7246976,0.7233464,-0.4020255
6879,0.7367479,0.7359507,-0.3995845
6881,0.7592455,0.7592455,-0.392669
6884,0.7592455,0.7592455,-0.392669
6886,0.7763211,0.7775803,-0.386643
6888,0.7763211,0.7775803,-0.386643
6890,0.7803435,0.7825971,-0.3820612
6893,0.7848442,0.7875819,-0.3784592
6895,0.7848442,0.7875819,-0.3784592
6897,0.7880787,0.7920414,-0.3700944
6900,0.7880787,0.7920414,-0.3700944
6902,0.7900625,0.7945082,-0.3663747
6904,0.7900625,0.7945082,-0.3663747
6907,0.7925354,0.7972127,-0.360452
6909,0.7942618,0.798929,-0.3577275
6912,0.7942618,0.798929,-0.3577275
6915,0.796476,0.8011303,-0.3527702
6917,0.796476,0.8011303,-0.3527702
6919,0.7969672,0.8016186,-0.3511023
6922,0.7927822,0.7977034,-0.3483046
6924,0.7927822,0.7977034,-0.3483046
6926,0.7925354,0.7974581,-0.3466151
6929,0.7925354,0.7974581,-0.3466151
6931,0.7954926,0.7994187,-0.3544303
6933,0.7954926,0.7994187,-0.3544303
6936,0.8021067,0.8033255,-0.3658403
6938,0.798684,0.7996635,-0.3663747
6940,0.798684,0.7996635,-0.3663747
6943,0.7950006,0.7957386,-0.3679734
6945,0.7950006,0.7957386,-0.3679734
6947,0.798929,0.7979487,-0.3748225
6950,0.8057577,0.8023506,-0.386643
6952,0.8057577,0.8023506,-0.386643
6955,0.7920414,0.7888232,-0.3896677
6958,0.7920414,0.7888232,-0.3896677
6960,0.772531,0.7697397,-0.393167
6962,0.772531,0.7697397,-0.393167
6965,0.7480813,0.7480813,-0.386643
6967,0.711894,0.7160051,-0.3769049
6969,0.711894,0.7160051,-0.3769049
6972,0.6909717,0.6968932,-0.3722032
6974,0.6909717,0.6968932,-0.3722032
6976,0.659382,0.6685182,-0.3642322
6978,0.659382,0.6685182,-0.3642322
6981,0.6471007,0.6564078,-0.3620769
6983,0.6361217,0.64589,-0.3593647
6985,0.6361217,0.64589,-0.3593647
6988,0.6196041,0.6293179,-0.358274
6990,0.6196041,0.6293179,-0.358274
6992,0.6138933,0.6224399,-0.358274
6995,0.6045791,0.6116581,-0.3599087
6998,0.6045791,0.6116581,-0.3599087
7000,0.6010084,0.6071628,-0.360452
7003,0.6010084,0.6071628,-0.360452
7005,0.5970887,0.6006827,-0.3642322
7007,0.5970887,0.6006827,-0.3642322
7010,0.5964329,0.598071,-0.3658403
7012,0.5983981,0.5970887,-0.3706227
7014,0.5983981,0.5970887,-0.3706227
7017,0.6006827,0.5970887,-0.3727285
7019,0.6006827,0.5970887,-0.3727285
7021,0.6084505,0.6003569,-0.3779418
7024,0.612617,0.6023093,-0.3810355
7026,0.612617,0.6023093,-0.3810355
7028,0.6158028,0.6039315,-0.3830841
7031,0.6158028,0.6039315,-0.3830841
7033,0.6271377,0.6103771,-0.3906707
7035,0.6271377,0.6103771,-0.3906707
7038,0.6305605,0.612617,-0.3936644
7041,0.6404136,0.616438,-0.4025119
7043,0.6404136,0.616438,-0.4025119
7046,0.6434618,0.6177064,-0.4059006
7048,0.6434618,0.6177064,-0.4059006
7050,0.6339648,0.6042554,-0.4130683
7053,0.6339648,0.6042554,-0.4130683
7055,0.6296288,0.5990517,-0.4154301
7057,0.6348901,0.5983981,-0.4256662
7059,0.6348901,0.5983981,-0.4256662
7062,0.6361217,0.5977437,-0.4284154
7064,0.6361217,0.5977437,-0.4284154
7066,0.6501176,0.6045791,-0.4410186
7069,0.6546168,0.6065179,-0.4458725
7071,0.6546168,0.6065179,-0.4458725
7073,0.6740565,0.6205508,-0.456712
7076,0.6740565,0.6205508,-0.456712
7078,0.6801254,0.6249498,-0.4609765
7080,0.6801254,0.6249498,-0.4609765
7084,0.7041557,0.645587,-0.4698059
7086,0.7124436,0.6528208,-0.4727124
7088,0.7124436,0.6528208,-0.4727124
7091,0.717643,0.6570037,-0.4756011
7093,0.717643,0.6570037,-0.4756011
7095,0.7249676,0.6632286,-0.4796977
7098,0.7263159,0.6647022,-0.4809199
7100,0.7263159,0.6647022,-0.4809199
7102,0.7284679,0.6667597,-0.4817329
7105,0.7284679,0.6667597,-0.4817329
7107,0.7372789,0.6743467,-0.4845679
7109,0.7372789,0.6743467,-0.4845679
7112,0.7501709,0.6855699,-0.4893896
7114,0.7589878,0.6935157,-0.4921804
7116,0.7589878,0.6935157,-0.4921804
7119,0.7720242,0.7047113,-0.4965344
7121,0.7720242,0.7047113,-0.4965344
7123,0.7793398,0.7116191,-0.4985009
7127,0.7895671,0.721179,-0.501241
7129,0.7895671,0.721179,-0.501241
7131,0.7952467,0.7268545,-0.501241
7134,0.7952467,0.7268545,-0.501241
7136,0.8035691,0.7354187,-0.5004597
7138,0.8035691,0.7354187,-0.5004597
7141,0.8076981,0.7399282,-0.5004597
7143,0.8137322,0.7465102,-0.4992853
7145,0.8137322,0.7465102,-0.4992853
7147,0.8187665,0.7522548,-0.4992853
7150,0.8187665,0.7522548,-0.4992853
7152,0.8256681,0.7600183,-0.4992853
7154,0.8256681,0.7600183,-0.4992853
7157,0.8277984,0.7643827,-0.4961402
7159,0.8313365,0.7702479,-0.4925778
7161,0.8313365,0.7702479,-0.4925778
7164,0.8374339,0.7775803,-0.4909863
7166,0.8374339,0.7775803,-0.4909863
7169,0.8455727,0.7880787,-0.4881886
7172,0.8499581,0.7940154,-0.4861804
7174,0.8499581,0.7940154,-0.4861804
7176,0.8568369,0.8023506,-0.4837596
7179,0.8568369,0.8023506,-0.4837596
7181,0.8607104,0.8074558,-0.4817329
7183,0.8607104,0.8074558,-0.4817329
7186,0.8638874,0.8115651,-0.4801054
7188,0.867504,0.8166127,-0.4780633
7190,0.867504,0.8166127,-0.4780633
7193,0.8684058,0.8175707,-0.477244
7195,0.8684058,0.8175707,-0.477244
7197,0.8704314,0.8192443,-0.4764233
7200,0.8713301,0.8201992,-0.4764233
7202,0.8713301,0.8201992,-0.4764233
7204,0.8711056,0.8190054,-0.477244
7207,0.8711056,0.8190054,-0.477244
7209,0.8699816,0.81781,-0.4776538
7212,0.8699816,0.81781,-0.4776538
7215,0.866827,0.8139727,-0.4792896
7217,0.8643403,0.8120472,-0.4801054
7219,0.8643403,0.8120472,-0.4801054
7222,0.8595729,0.806971,-0.4817329
7224,0.8595729,0.806971,-0.4817329
7226,0.8568369,0.8042993,-0.4829499
7229,0.8568369,0.8042993,-0.4829499
7231,0.8490367,0.796476,-0.4849715
7233,0.8446465,0.7912999,-0.4865827
7235,0.8446465,0.7912999,-0.4865827
7238,0.840466,0.7873334,-0.4869847
7240,0.840466,0.7873334,-0.4869847
7242,0.8289794,0.7755645,-0.4873863
7245,0.8194832,0.7656615,-0.4877876
7247,0.8194832,0.7656615,-0.4877876
7249,0.8151737,0.7610474,-0.4881886
7252,0.8151737,0.7610474,-0.4881886
7255,0.8115651,0.7574393,-0.4881886
7257,0.8115651,0.7574393,-0.4881886
7260,0.8011303,0.7478197,-0.4865827
7262,0.7974581,0.7444103,-0.4861804
7264,0.7974581,0.7444103,-0.4861804
7267,0.7863387,0.7343537,-0.4837596
7269,0.7863387,0.7343537,-0.4837596
7271,0.782347,0.7308815,-0.4833549
7274,0.7692311,0.719821,-0.4788812
7276,0.7692311,0.719821,-0.4788812
7278,0.7646385,0.7157319,-0.4776538
7281,0.7646385,0.7157319,-0.4776538
7283,0.7558876,0.711894,-0.468137
7285,0.7558876,0.711894,-0.468137
7288,0.7525149,0.7105184,-0.464781
7290,0.7486043,0.7096917,-0.4592754
7292,0.7486043,0.7096917,-0.4592754
7296,0.7399282,0.7060983,-0.4489339
7298,0.7399282,0.7060983,-0.4489339
7300,0.7356848,0.7038778,-0.4441136
7303,0.729005,0.7013714,-0.4365593
7305,0.729005,0.7013714,-0.4365593
7307,0.7238871,0.6991359,-0.4306931
7310,0.7238871,0.6991359,-0.4306931
7312,0.7135413,0.6943616,-0.4196478
7314,0.7135413,0.6943616,-0.4196478
7317,0.7083117,0.6915378,-0.4140146
7319,0.7044336,0.6898379,-0.4102162
7321,0.7044336,0.6898379,-0.4102162
7323,0.694925,0.6858553,-0.3990945
7326,0.694925,0.6858553,-0.3990945
7328,0.6915378,0.6841414,-0.3961419
7330,0.6915378,0.6841414,-0.3961419
7333,0.6818494,0.6781085,-0.3876539
7335,0.6783969,0.6760855,-0.3846134
7337,0.6783969,0.6760855,-0.3846134
7341,0.6723125,0.6717301,-0.3800071
7343,0.6723125,0.6717301,-0.3800071
7345,0.6705639,0.6702721,-0.3779418
7348,0.6647022,0.6647022,-0.3774237
7350,0.6647022,0.6647022,-0.3774237
7352,0.6623429,0.6626383,-0.3763854
7355,0.6623429,0.6626383,-0.3763854
7357,0.6620474,0.6611602,-0.3779418
7359,0.6620474,0.6602717,-0.3789758
7362,0.6617518,0.659382,-0.3800071
7364,0.6596788,0.6549156,-0.382573
7366,0.6596788,0.6549156,-0.382573
7369,0.6590852,0.65342,-0.3841043
7371,0.6590852,0.65342,-0.3841043
7373,0.6581939,0.6507192,-0.3876539
7376,0.6573014,0.6464956,-0.3936644
7378,0.6573014,0.6464956,-0.3936644
7380,0.6573014,0.6443735,-0.3976209
7384,0.6573014,0.6443735,-0.3976209
7386,0.6570037,0.6407191,-0.403483
7388,0.6570037,0.6407191,-0.403483
7391,0.6578966,0.6391903,-0.4078243
7393,0.6596788,0.6367366,-0.414487
7395,0.6596788,0.6367366,-0.414487
7398,0.6602717,0.6351982,-0.4168407
7400,0.6602717,0.6351982,-0.4168407
7402,0.6608641,0.633656,-0.4201138
7405,0.6608641,0.633656,-0.4201138
7407,0.6608641,0.633656,-0.4201138
7409,0.6626383,0.6318005,-0.4247459
7411,0.6626383,0.6318005,-0.4247459
7414,0.6635236,0.6308707,-0.4279585
7416,0.6635236,0.6308707,-0.4279585
7418,0.6661724,0.6286958,-0.4338616
7421,0.6781085,0.6416347,-0.4311472
7424,0.6781085,0.6416347,-0.4311472
7426,0.6824232,0.6443735,-0.4334104
7429,0.6824232,0.6443735,-0.4334104
7431,0.6864257,0.6440698,-0.4387946
7433,0.6864257,0.6440698,-0.4387946
7436,0.6869956,0.6428534,-0.4419051
7438,0.6858553,0.6376578,-0.4515415
7440,0.6858553,0.6376578,-0.4515415
7443,0.6864257,0.635814,-0.4545648
7445,0.6864257,0.635814,-0.4545648
7447,0.6841414,0.6321102,-0.4584226
7450,0.6815624,0.6274496,-0.463094
7452,0.6815624,0.6274496,-0.463094
7454,0.6795497,0.6249498,-0.4656223
7457,0.6795497,0.6249498,-0.4656223
7459,0.6769533,0.6208661,-0.4685547
7461,0.6769533,0.6208661,-0.4685547
7464,0.675796,0.6202354,-0.4698059
7467,0.6749268,0.6196041,-0.4710537
7469,0.6749268,0.6196041,-0.4710537
7472,0.6723125,0.6180231,-0.4722982
7474,0.6723125,0.6180231,-0.4722982
7476,0.6702721,0.6170725,-0.4722982
7479,0.6641131,0.6138933,-0.4693892
7481,0.6641131,0.6138933,-0.4693892
7483,0.6596788,0.6129363,-0.4668813
7486,0.6596788,0.6129363,-0.4668813
7488,0.6620474,0.6249498,-0.4541341
7490,0.6620474,0.6249498,-0.4541341
7493,0.667053,0.6364292,-0.4445539
7495,0.675796,0.6587883,-0.4224361
7497,0.675796,0.6587883,-0.4224361
7499,0.6798376,0.66998,-0.4102162
7502,0.6798376,0.66998,-0.4102162
7504,0.6838553,0.6798376,-0.4000739
7506,0.6838553,0.6798376,-0.4000739
7510,0.7005339,0.7024865,-0.3896677
7512,0.7074825,0.7116191,-0.3856296
7514,0.7074825,0.7116191,-0.3856296
7517,0.7388696,0.7506924,-0.3642322
7519,0.7388696,0.7506924,-0.3642322
7521,0.7553698,0.7722777,-0.3499859
7524,0.783097,0.8067285,-0.3268584
7526,0.783097,0.8067285,-0.3268584
7528,0.7945082,0.8204377,-0.3177519
7531,0.7945082,0.8204377,-0.3177519
7533,0.7451985,0.7730374,-0.311533
7535,0.7451985,0.7730374,-0.311533
7538,0.7273927,0.7561465,-0.3083766
7540,0.6954879,0.7263159,-0.3039024
7542,0.6696879,0.7019292,-0.3000144
7545,0.6379647,0.6746368,-0.2914124
7547,0.6379647,0.6746368,-0.2914124
7549,0.6116581,0.652221,-0.2832403
7553,0.5640592,0.6135744,-0.2654082
7555,0.5640592,0.6135744,-0.2654082
7557,0.5424856,0.5970887,-0.2556444
7560,0.5424856,0.5970887,-0.2556444
7562,0.5062904,0.5719823,-0.234068
7564,0.5062904,0.5719823,-0.234068
7567,0.4909863,0.5623221,-0.2229358
7569,0.4693892,0.5503638,-0.2017412
7571,0.4693892,0.5503638,-0.2017412
7574,0.4622481,0.5467969,-0.191797
7576,0.4622481,0.5467969,-0.191797
7578,0.4498048,0.5406791,-0.1758294
7581,0.4288719,0.5267473,-0.1619255
7583,0.4288719,0.5267473,-0.1619255
7585,0.3956476,0.5055169,-0.1356209
7587,0.3956476,0.5055169,-0.1356209
7590,0.3966355,0.5066768,-0.1312212
7592,0.3966355,0.5066768,-0.1312212
7595,0.3946573,0.5062904,-0.1219466
7598,0.3871488,0.5004597,-0.1170339
7600,0.3871488,0.5004597,-0.1170339
7602,0.3800071,0.4949555,-0.1119058
7605,0.3800071,0.4949555,-0.1119058
7607,0.3674413,0.4849715,-0.1101434
7609,0.3674413,0.4849715,-0.1101434
7612,0.3620769,0.4805128,-0.1046783
7614,0.3533245,0.4722982,-0.1101434
7616,0.3533245,0.4722982,-0.1101434
7619,0.3499859,0.4685547,-0.1101434
7621,0.3499859,0.4685547,-0.1101434
7623,0.3560827,0.4722982,-0.1356209
7626,0.3577275,0.4731261,-0.1440177
7628,0.3577275,0.4731261,-0.1440177
7630,0.3727285,0.4805128,-0.1735894
7633,0.3727285,0.4805128,-0.1735894
7635,0.3789758,0.4829499,-0.183454
7638,0.3789758,0.4829499,-0.183454
7641,0.3901695,0.4845679,-0.2148914
7643,0.3941611,0.4845679,-0.2255535
7645,0.3941611,0.4845679,-0.2255535
7648,0.4010509,0.4853748,-0.2406627
7650,0.4010509,0.4853748,-0.2406627
7652,0.4111691,0.4853748,-0.2624426
7655,0.4370072,0.5078341,-0.2690692
7657,0.4370072,0.5078341,-0.2690692
7659,0.4751895,0.5414024,-0.2783625
7662,0.4751895,0.5414024,-0.2783625
7664,0.4893896,0.5542608,-0.2818553
7666,0.4893896,0.5542608,-0.2818553
7668,0.509757,0.5736903,-0.2866737
7671,0.5414024,0.6029587,-0.2947506
7673,0.5414024,0.6029587,-0.2947506
7675,0.5532007,0.614212,-0.2987072
7678,0.5532007,0.614212,-0.2987072
7681,0.5668277,0.6283845,-0.2980514
7683,0.5668277,0.6283845,-0.2980514
7686,0.5702693,0.6327289,-0.2947506
7688,0.5736903,0.6388841,-0.2866737
7690,0.5736903,0.6388841,-0.2866737
7693,0.5747126,0.6410245,-0.2818553
7695,0.5747126,0.6410245,-0.2818553
7697,0.575053,0.6425489,-0.2748253
7700,0.5743721,0.6428534,-0.2712421
7702,0.5743721,0.6428534,-0.2712421
7704,0.5794597,0.6477052,-0.272681
7707,0.5794597,0.6477052,-0.272681
7709,0.5841681,0.6516207,-0.2762456
7711,0.5841681,0.6516207,-0.2762456
7714,0.5934729,0.6590852,-0.2832403
7716,0.5974163,0.6626383,-0.2866737
7718,0.5974163,0.6626383,-0.2866737
7721,0.6065179,0.6696879,-0.2914124
7724,0.6065179,0.6696879,-0.2914124
7726,0.6199199,0.680988,-0.2980514
7729,0.6255757,0.6852845,-0.3006659
7731,0.6255757,0.6852845,-0.3006659
7733,0.6361217,0.6940797,-0.3051875
7736,0.6361217,0.6940797,-0.3051875
7738,0.6410245,0.6980155,-0.3064671
7740,0.6410245,0.6980155,-0.3064671
7743,0.6483091,0.7044336,-0.3090104
7745,0.6510199,0.7072059,-0.309643
7747,0.6510199,0.7072059,-0.309643
7750,0.6555129,0.711894,-0.3109043
7752,0.6555129,0.711894,-0.3109043
7754,0.6573014,0.7140896,-0.3109043
7756,0.661456,0.7195491,-0.3102743
7759,0.661456,0.7195491,-0.3102743
7761,0.6632286,0.7214502,-0.3102743
7763,0.6632286,0.7214502,-0.3102743
7767,0.6641131,0.7236168,-0.3102743
7769,0.6647022,0.7252374,-0.309643
7771,0.6641131,0.7263159,-0.3102743
7774,0.6638185,0.7268545,-0.309643
7776,0.6638185,0.7268545,-0.309643
7778,0.6629335,0.7273927,-0.3109043
7781,0.6629335,0.7273927,-0.3109043
7783,0.6623429,0.7273927,-0.311533
7785,0.6623429,0.7273927,-0.311533
7788,0.659382,0.7246976,-0.3134116
7790,0.6567059,0.7225344,-0.3146578
7792,0.6567059,0.7225344,-0.3146578
7795,0.6537194,0.719821,-0.315899
7797,0.6537194,0.719821,-0.315899
7799,0.6471007,0.7129927,-0.3171355
7802,0.6351982,0.7022079,-0.3202056
7804,0.6351982,0.7022079,-0.3202056
7806,0.6299395,0.6980155,-0.3208161
7810,0.6299395,0.6980155,-0.3208161
7812,0.615167,0.6861406,-0.315279
7814,0.615167,0.6861406,-0.315279
7817,0.6058724,0.6792617,-0.309643
7819,0.5861744,0.6647022,-0.2980514
7821,0.5861744,0.6647022,-0.2980514
7824,0.5764125,0.6573014,-0.2927522
7826,0.5764125,0.6573014,-0.2927522
7828,0.5410409,0.6246366,-0.2880355
7831,0.5188877,0.6026341,-0.289391
7833,0.5188877,0.6026341,-0.289391
7835,0.4735395,0.5584812,-0.2914124
7838,0.4735395,0.5584812,-0.2914124
7840,0.4519747,0.5366834,-0.2934199
7842,0.4519747,0.5366834,-0.2934199
7844,0.4338616,0.5188877,-0.2947506
7847,0.4015385,0.4885893,-0.2947506
7849,0.4015385,0.4885893,-0.2947506
7852,0.3891652,0.4764233,-0.2947506
7855,0.3891652,0.4764233,-0.2947506
7857,0.3642322,0.4541341,-0.2920831
7859,0.3544303,0.4454334,-0.2920831
7862,0.3544303,0.4454334,-0.2920831
7864,0.3527702,0.4436728,-0.301316
7866,0.3527702,0.4436728,-0.301316
7869,0.3522151,0.4427898,-0.3051875
7871,0.3522151,0.4427898,-0.3051875
7873,0.3488659,0.4445539,-0.3006659
7876,0.3471792,0.4449939,-0.2993615
7878,0.3471792,0.4449939,-0.2993615
7880,0.3232465,0.4379019,-0.2797648
7883,0.3232465,0.4379019,-0.2797648
7885,0.3140353,0.4347627,-0.272681
7887,0.3140353,0.4347627,-0.272681
7890,0.315899,0.4489339,-0.2525642
7892,0.3202056,0.4693892,-0.2211734
7895,0.3202056,0.4693892,-0.2211734
7898,0.309643,0.4809199,-0.1769387
7900,0.309643,0.4809199,-0.1769387
7902,0.3064671,0.4849715,-0.1594904
7905,0.2940859,0.4885893,-0.1153499
7907,0.2940859,0.4885893,-0.1153499
7909,0.2914124,0.4901886,-0.09891172
7912,0.2914124,0.4901886,-0.09891172
7914,0.3083766,0.5043544,-0.06852804
7916,0.3083766,0.5043544,-0.06852804
7919,0.324455,0.5158621,-0.05595291
7921,0.3511023,0.5319225,-0.01978234
7923,0.3511023,0.5319225,-0.01978234
7926,0.3951527,0.5567266,0.01978234
7928,0.3951527,0.5567266,0.01978234
7930,0.4265846,0.5733491,0.05595291
7932,0.4784724,0.6000308,0.1119058
7936,0.4784724,0.6000308,0.1119058
7938,0.5101407,0.614212,0.14537
7940,0.5101407,0.614212,0.14537
7943,0.5392296,0.6268256,0.1758294
7945,0.5392296,0.6268256,0.1758294
7947,0.5764125,0.6351982,0.23239
7950,0.5885065,0.6333472,0.2579304
7952,0.5885065,0.6333472,0.2579304
7954,0.6339648,0.6561096,0.2993615
7957,0.6339648,0.6561096,0.2993615
7959,0.6629335,0.6766641,0.3177519
7961,0.6629335,0.6766641,0.3177519
7964,0.7038778,0.7019292,0.3544303
7966,0.7184606,0.708588,0.3743001
7968,0.7184606,0.708588,0.3743001
7971,0.7423044,0.7124436,0.414487
7973,0.7423044,0.7124436,0.414487
7975,0.7522548,0.7107937,0.4356619
7979,0.7865875,0.7225344,0.4747775
7981,0.7865875,0.7225344,0.4747775
7983,0.8089085,0.7335538,0.4941643
7986,0.8089085,0.7335538,0.4941643
7988,0.8494976,0.749388,0.5326577
7990,0.8494976,0.749388,0.5326577
7993,0.8681804,0.7553698,0.5521386
7995,0.8858072,0.7607903,0.5702693
7997,0.8858072,0.7607903,0.5702693
8000,0.9071976,0.7451985,0.6090934
8002,0.9071976,0.7451985,0.6090934
8004,0.9187712,0.7401926,0.6265134
8007,0.9159984,0.6752167,0.6752167
8009,0.9159984,0.6752167,0.6752167
8011,0.9208986,0.6516207,0.6974546
8014,0.9208986,0.6516207,0.6974546
8016,0.9257729,0.5821548,0.745461
8018,0.9257729,0.5821548,0.745461
8020,0.9331415,0.5567266,0.7669383
8024,0.9493572,0.4996771,0.8084246
8026,0.9493572,0.4996771,0.8084246
8028,0.960423,0.4784724,0.8280347
8031,0.960423,0.4784724,0.8280347
8033,0.9765865,0.4502396,0.8485757
8035,0.9815831,0.4297835,0.8577499
8038,0.9815831,0.4297835,0.8577499
8040,0.9887336,0.4116447,0.867955
8042,0.9887336,0.4116447,0.867955
8045,1.00561,0.3830841,0.8906538
8047,1.00561,0.3830841,0.8906538
8049,1.008912,0.3706227,0.8948184
8052,1.013557,0.3631561,0.8950371
8054,1.013557,0.3631561,0.8950371
8056,1.015678,0.3669084,0.8921905
8059,1.015678,0.3669084,0.8921905
8061,1.019716,0.3700944,0.8924097
8064,1.019716,0.3700944,0.8924097
8067,1.003077,0.4044518,0.8570652
8069,1.000538,0.4177785,0.8467289
8071,1.000538,0.4177785,0.8467289
8074,0.9512104,0.4130683,0.7908052
8076,0.9512104,0.4130683,0.7908052
8078,0.9352362,0.410693,0.7722777
8081,0.8816,0.3951527,0.719005
8083,0.8816,0.3951527,0.719005
8085,0.8632076,0.3886621,0.7008132
8088,0.8632076,0.3886621,0.7008132
8090,0.8645667,0.4135417,0.6901216
8092,0.8645667,0.4135417,0.6901216
8095,0.8706562,0.4511079,0.6766641
8097,0.8789325,0.4756011,0.6714388
8099,0.8789325,0.4756011,0.6714388
8102,0.8948184,0.5132,0.6649964
8104,0.8948184,0.5132,0.6649964
8107,0.8948184,0.5132,0.6649964
8109,0.8948184,0.5132,0.6649964
8112,0.8948184,0.5132,0.6649964
8114,0.8967844,0.5344914,0.651921
8116,0.8967844,0.5344914,0.651921
8119,0.9000514,0.5528469,0.6419396
8121,0.9000514,0.5528469,0.6419396
8123,0.9061184,0.5947903,0.6148488
8126,0.9102123,0.6110179,0.605226
8128,0.9102123,0.6110179,0.605226
8130,0.9364907,0.6647022,0.589503
8133,0.9364907,0.6647022,0.589503
8135,0.9561348,0.6980155,0.5828267
8137,0.9561348,0.6980155,0.5828267
8140,0.9981881,0.7810954,0.5514293
8142,1.017026,0.814213,0.5399548
8144,1.017026,0.814213,0.5399548
8147,1.011817,0.8411642,0.4949555
8150,1.011817,0.8411642,0.4949555
8152,1.012011,0.8531751,0.4776538
8155,1.002296,0.8643403,0.4423477
8157,1.002296,0.8643403,0.4423477
8159,0.9940628,0.8659236,0.4242849
8162,0.9940628,0.8659236,0.4242849
8164,0.9883377,0.8684058,0.4087828
8166,0.9555206,0.8336869,0.4025119
8169,0.9295698,0.8062432,0.3966355
8171,0.8897746,0.7682129,0.3835945
8173,0.8897746,0.7682129,0.3835945
8176,0.8311011,0.7135413,0.3609945
8178,0.8311011,0.7135413,0.3609945
8180,0.8003972,0.6812752,0.354982
8183,0.7545922,0.6330382,0.3432113
8185,0.7545922,0.6330382,0.3432113
8187,0.7322189,0.6090934,0.3386196
8190,0.7322189,0.6090934,0.3386196
8193,0.6980155,0.5736903,0.329838
8195,0.6980155,0.5736903,0.329838
8197,0.6838553,0.5602303,0.3250574
8200,0.6717301,0.5489398,0.3208161
8202,0.6611602,0.5395923,0.3171355
8204,0.6561096,0.5355885,0.3146578
8207,0.6561096,0.5355885,0.3146578
8209,0.6513204,0.5326577,0.3127867
8211,0.646193,0.53008,0.3109043
8214,0.646193,0.53008,0.3109043
8216,0.6449805,0.53008,0.311533
8218,0.6449805,0.53008,0.311533
8221,0.6623429,0.5542608,0.3127867
8223,0.6623429,0.5542608,0.3127867
8225,0.6778198,0.5743721,0.3134116
8228,0.7168246,0.6199199,0.3214254
8230,0.7168246,0.6199199,0.3214254
8232,0.7383398,0.6437659,0.3274564
8236,0.7383398,0.6437659,0.3274564
8238,0.7947544,0.6980155,0.3483046
8240,0.7947544,0.6980155,0.3483046
8243,0.8263788,0.7273927,0.3615361
8245,0.8702065,0.7631016,0.3876539
8247,0.8702065,0.7631016,0.3876539
8250,0.8849231,0.7735435,0.4000739
8252,0.8849231,0.7735435,0.4000739
8254,0.8980926,0.7825971,0.4111691
8257,0.9429458,0.8115651,0.4502396
8259,0.9429458,0.8115651,0.4502396
8261,0.9606267,0.8232948,0.4652019
8264,0.9606267,0.8232948,0.4652019
8266,1.006388,0.8513383,0.5059038
8268,1.006388,0.8513383,0.5059038
8271,1.024693,0.8632076,0.5215207
8273,1.070641,0.8996165,0.5524929
8275,1.070641,0.8996165,0.5524929
8278,1.090022,0.9149297,0.5650989
8281,1.090022,0.9149297,0.5650989
8283,1.102694,0.9213235,0.5855064
8285,1.109241,0.9253501,0.5938025
8288,1.109241,0.9253501,0.5938025
8290,1.104113,0.9153573,0.6074851
8292,1.104113,0.9153573,0.6074851
8295,1.104113,0.9134313,0.6138933
8297,1.104113,0.9134313,0.6138933
8299,1.093606,0.8965662,0.628073
8302,1.091457,0.8917516,0.6348901
8304,1.091457,0.8917516,0.6348901
8306,1.068445,0.8746923,0.6311808
8309,1.068445,0.8746923,0.6311808
8311,1.061831,0.8697567,0.6308707
8313,1.037409,0.8534044,0.6236961
8316,1.037409,0.8534044,0.6236961
8318,1.030216,0.8485757,0.6221254
8321,1.030216,0.8485757,0.6221254
8324,1.002296,0.825194,0.6135744
8326,1.002296,0.825194,0.6135744
8328,0.993472,0.8175707,0.6116581
8331,0.9801866,0.8062432,0.6071628
8333,0.9801866,0.8062432,0.6071628
8335,0.963068,0.7908052,0.6026341
8338,0.963068,0.7908052,0.6026341
8340,0.9565441,0.7878303,0.5997046
8342,0.9565441,0.7878303,0.5997046
8345,0.9520329,0.7858408,0.5983981
8347,0.9435682,0.7853427,0.5921526
8349,0.9435682,0.7853427,0.5921526
8352,0.9396197,0.7860898,0.5898349
8354,0.9396197,0.7860898,0.5898349
8356,0.9385778,0.7888232,0.587175
8359,0.9381608,0.7912999,0.5858405
8361,0.9381608,0.7912999,0.5858405
8364,0.9425307,0.8016186,0.5831623
8366,0.9425307,0.8016186,0.5831623
8369,0.9466738,0.8084246,0.5821548
8371,0.9503872,0.8139727,0.5818186
8373,0.9522384,0.8180492,0.5801346
8376,0.9555206,0.8247196,0.5784457
8378,0.9555206,0.8247196,0.5784457
8380,0.9608305,0.8315719,0.57743
8383,0.9608305,0.8315719,0.57743
8385,0.9655032,0.8374339,0.57743
8387,0.9737772,0.8481144,0.5760729
8390,0.9737772,0.8481144,0.5760729
8392,0.9773876,0.8529457,0.5753932
8394,0.9773876,0.8529457,0.5753932
8397,0.9847674,0.8552368,0.5811456
8399,0.9847674,0.8552368,0.5811456
8401,0.9883377,0.854092,0.5858405
8404,0.9897227,0.8554656,0.5845029
8407,0.9897227,0.8554656,0.5845029
8409,0.9916978,0.858434,0.5821548
8412,0.9916978,0.858434,0.5821548
8414,0.9793876,0.8374339,0.5875081
8416,0.9793876,0.8374339,0.5875081
8419,0.9618481,0.8060005,0.5957764
8421,0.9557254,0.7942618,0.5993783
8423,0.9557254,0.7942618,0.5993783
8426,0.9329317,0.7571809,0.605226
8428,0.9329317,0.7571809,0.605226
8430,0.9208986,0.7399282,0.605226
8433,0.9035233,0.7132671,0.6061952
8435,0.9035233,0.7132671,0.6061952
8437,0.9278842,0.7462481,0.598071
8440,0.9278842,0.7462481,0.598071
8442,0.9493572,0.774302,0.5911604
8444,0.9493572,0.774302,0.5911604
8448,0.971967,0.8064859,0.5794597
8450,0.9755841,0.8132511,0.5747126
8452,0.9755841,0.8132511,0.5747126
8454,0.9849661,0.8270888,0.5675176
8457,0.9849661,0.8270888,0.5675176
8459,0.9899204,0.8339216,0.5647526
8461,0.98238,0.8329825,0.5517841
8464,0.98238,0.8329825,0.5517841
8466,0.972772,0.8280347,0.5432066
8468,0.972772,0.8280347,0.5432066
8471,0.9646922,0.8280347,0.5282311
8473,0.9646922,0.8280347,0.5282311
8475,0.964895,0.8313365,0.5218958
8478,0.9542912,0.8301588,0.5047422
8480,0.9542912,0.8301588,0.5047422
8482,0.9454328,0.8268523,0.4949555
8485,0.9454328,0.8268523,0.4949555
8487,0.9431533,0.8336869,0.4784724
8489,0.9472937,0.8418618,0.4718838
8493,0.9472937,0.8418618,0.4718838
8495,0.957975,0.8595729,0.4601268
8497,0.957975,0.8595729,0.4601268
8500,0.9640834,0.8686311,0.454995
8502,0.9640834,0.8686311,0.454995
8504,0.9693463,0.8760335,0.450674
8507,0.9487386,0.8643403,0.4334104
8509,0.9487386,0.8643403,0.4334104
8511,0.926618,0.8499581,0.4187142
8514,0.926618,0.8499581,0.4187142
8516,0.9142877,0.8416294,0.4116447
8518,0.9142877,0.8416294,0.4116447
8521,0.9039564,0.8346253,0.4054182
8523,0.8818219,0.8151737,0.3995845
8525,0.8818219,0.8151737,0.3995845
8528,0.873349,0.8079404,0.3971285
8530,0.8586619,0.7937689,0.3966355
8532,0.8462666,0.7818466,0.3961419
8536,0.8074558,0.7393991,0.4015385
8538,0.8074558,0.7393991,0.4015385
8540,0.7845948,0.7127182,0.4063823
8542,0.7845948,0.7127182,0.4063823
8545,0.7467723,0.6644077,0.4210443
8547,0.7467723,0.6644077,0.4210443
8549,0.7314168,0.6422443,0.4297835
8552,0.7316842,0.6367366,0.4427898
8554,0.7316842,0.6367366,0.4427898
8556,0.7409853,0.646193,0.4471871
8559,0.7409853,0.646193,0.4471871
8561,0.7671934,0.6714388,0.4579955
8563,0.782347,0.6858553,0.464781
8566,0.782347,0.6858553,0.464781
8568,0.8132511,0.7127182,0.4809199
8570,0.8132511,0.7127182,0.4809199
8573,0.8285072,0.7249676,0.4901886
8576,0.8285072,0.7249676,0.4901886
8578,0.8409316,0.7348864,0.4981082
8581,0.8672784,0.7504317,0.5222706
8583,0.8672784,0.7504317,0.5222706
8585,0.8771496,0.7561465,0.5315546
8588,0.8771496,0.7561465,0.5315546
8590,0.8950371,0.7610474,0.555319
8592,0.901572,0.7628451,0.564406
8595,0.901572,0.7628451,0.564406
8597,0.9106421,0.749388,0.5914913
8599,0.9106421,0.749388,0.5914913
8602,0.9140738,0.7446731,0.6016592
8604,0.9140738,0.7446731,0.6016592
8606,0.9219604,0.7279305,0.6283845
8609,0.9253501,0.7217214,0.6388841
8611,0.9253501,0.7217214,0.6388841
8613,0.9348176,0.7146374,0.6599753
8616,0.9348176,0.7146374,0.6599753
8619,0.9402443,0.7127182,0.66998
8621,0.9402443,0.7127182,0.66998
8624,0.9466738,0.7157319,0.6807005
8626,0.9485323,0.7195491,0.6829963
8628,0.9485323,0.7195491,0.6829963
8630,0.9435682,0.7219925,0.6798376
8633,0.9435682,0.7219925,0.6798376
8635,0.9423231,0.7225344,0.6798376
8637,0.9435682,0.7292733,0.6781085
8640,0.9435682,0.7292733,0.6781085
8642,0.9462603,0.7391344,0.6772422
8644,0.9462603,0.7391344,0.6772422
8647,0.9489449,0.7483428,0.6743467
8649,0.9489449,0.7483428,0.6743467
8651,0.9536759,0.7607903,0.6708556
8654,0.9585876,0.7722777,0.6667597
8656,0.9585876,0.7722777,0.6667597
8658,0.9663135,0.7895671,0.661456
8662,0.9663135,0.7895671,0.661456
8664,0.9591998,0.7845948,0.6578966
8666,0.9532654,0.7805943,0.6555129
8669,0.9532654,0.7805943,0.6555129
8671,0.9379522,0.7697397,0.6464956
8673,0.9379522,0.7697397,0.6464956
8676,0.9293592,0.7636142,0.6407191
8678,0.9293592,0.7636142,0.6407191
8680,0.9087062,0.7512136,0.6243232
8683,0.8980926,0.7451985,0.6148488
8685,0.8980926,0.7451985,0.6148488
8687,0.8930672,0.7625886,0.5818186
8690,0.8930672,0.7625886,0.5818186
8692,0.8976567,0.7818466,0.5605795
8694,0.8976567,0.7818466,0.5605795
8697,0.899834,0.7888232,0.5417637
8699,0.8972207,0.7810954,0.5406791
8701,0.8972207,0.7810954,0.5406791
8705,0.8829308,0.7558876,0.5370479
