time,turnedAngle,pitchAngle,yawAngle
,0,0,0
675112,0,0,0
675116,0,0,0
675118,0,0,0
675126,0,0,0
675128,0,0,0
675131,0,0,0
675133,0,0,0
675136,0,0,0
675138,0,0,0
675141,0,0,0
675143,0,0,0
675146,0,0,0
675148,0,0,0
675151,0,0,0
675153,0,0,0
675156,0,0,0
675159,0,0,0
675162,0,0,0
675164,0,0,0
675167,0,0,0
675169,0,0,0
675172,0,0,0
675174,0,0,0
675177,0,0,0
675179,0,0,0
675182,0,0,0
675184,0,0,0
675187,0,0,0
675189,0,0,0
675192,0,0,0
675194,0,0,0
675197,0,0,0
675200,0,0,0
675203,0,0,0
675205,0,0,0
675208,0,0,0
675210,0,0,0
675213,0,0,0
675215,0,0,0
675218,0,0,0
675220,0,0,0
675222,0,0,0
675225,0,0,0
675227,0,0,0
675230,0,0,0
675232,0,0,0
675235,0,0,0
675237,0,0,0
675240,0,0,0
675243,0,0,0
675246,0,0,0
675248,0,0,0
675251,0,0,0
675253,0,0,0
675256,0,0,0
675258,0,0,0
675261,0,0,0
675263,0,0,0
675266,0,0,0
675268,0,0,0
675271,0,0,0
675273,0,0,0
675276,0,0,0
675278,0,0,0
675281,0,0,0
675283,0,0,0
675287,0,0,0
675289,0,0,0
675292,0,0,0
675294,0,0,0
675297,0,0,0
675299,0,0,0
675302,0,0,0
675304,0,0,0
675307,0,0,0
675309,0,0,0
675312,0,0,0
675314,0,0,0
675317,0,0,0
675319,0,0,0
675322,0,0,0
675324,0,0,0
675328,0,0,0
675330,0,0,0
675333,0,0,0
675335,0,0,0
675338,0,0,0
675340,0,0,0
675343,0,0,0
675345,0,0,0
675348,0,0,0
675350,0,0,0
675352,0,0,0
675355,0,0,0
675357,0,0,0
675360,0,0,0
675362,0,0,0
675365,0,0,0
675367,0,0,0
675371,0,0,0
675373,0,0,0
675376,0,0,0
675378,0,0,0
675381,0,0,0
675383,0,0,0
675386,0,0,0
675388,0,0,0
675391,0,0,0
675393,0,0,0
675396,0,0,0
675398,0,0,0
675401,0,0,0
675403,0,0,0
675406,0,0,0
675408,0,0,0
675411,0,0,0
675414,0,0,0
675417,0,0,0
675419,0,0,0
675422,0,0,0
675424,0,0,0
675427,0,0,0
675429,0,0,0
675432,0,0,0
675434,0,0,0
675437,0,0,0
675439,0,0,0
675442,0,0,0
675444,0,0,0
675447,0,0,0
675449,0,0,0
675452,0,0,0
675454,0,0,0
675458,0,0,0
675460,0,0,0
675463,0,0,0
675465,0,0,0
675468,0,0,0
675470,0,0,0
675473,0,0,0
675475,0,0,0
675478,0,0,0
675480,0,0,0
675483,0,0,0
675485,0,0,0
675487,0,0,0
675490,0,0,0
675492,0,0,0
675495,0,0,0
675497,0,0,0
675501,0,0,0
675503,0,0,0
675506,0,0,0
675508,0,0,0
675511,0,0,0
675513,0,0,0
675516,0,0,0
675518,0,0,0
675521,0,0,0
675523,0,0,0
675526,0,0,0
675528,0,0,0
675531,0,0,0
675533,0,0,0
675536,0,0,0
675538,0,0,0
675542,0,0,0
675544,0,0,0
675547,0,0,0
675549,0,0,0
675552,0,0,0
675554,0,0,0
675557,0,0,0
675559,0,0,0
675562,0,0,0
675564,0,0,0
675567,0,0,0
675569,0,0,0
675572,0,0,0
675574,0,0,0
675577,0,0,0
675579,0,0,0
675582,0,0,0
675585,0,0,0
675588,0,0,0
675590,0,0,0
675593,0,0,0
675595,0,0,0
675598,0,0,0
675600,0,0,0
675603,0,0,0
675605,0,0,0
675608,0,0,0
675610,0,0,0
675613,0,0,0
675615,0,0,0
675617,0,0,0
675620,0,0,0
675622,0,0,0
675625,0,0,0
675628,0,0,0
675631,0,0,0
675633,0,0,0
675636,0,0,0
675638,0,0,0
675641,0,0,0
675643,0,0,0
675646,0,0,0
675648,0,0,0
675651,0,0,0
675653,0,0,0
675656,0,0,0
675658,0,0,0
675661,0,0,0
675663,0,0,0
675666,0,0,0
675668,0,0,0
675672,0,0,0
675674,0,0,0
675677,0,0,0
675679,0,0,0
675682,0,0,0
675684,0,0,0
675687,0,0,0
675689,0,0,0
675692,0,0,0
675694,0,0,0
675697,0,0,0
675699,0,0,0
675702,0,0,0
675704,0,0,0
675707,0,0,0
675709,0,0,0
675713,0,0,0
675715,0,0,0
675718,0,0,0
675720,0,0,0
675723,0,0,0
675725,0,0,0
675728,0,0,0
675730,0,0,0
675733,0,0,0
675735,0,0,0
675738,0,0,0
675740,0,0,0
675743,0,0,0
675745,0,0,0
675747,0,0,0
675750,0,0,0
675752,0,0,0
675756,0,0,0
675758,0,0,0
675761,0,0,0
675763,0,0,0
675766,0,0,0
675768,0,0,0
675771,0,0,0
675773,0,0,0
675776,0,0,0
675778,0,0,0
675781,0,0,0
675783,0,0,0
675786,0,0,0
675788,0,0,0
675791,0,0,0
675793,0,0,0
675796,0,0,0
675799,0,0,0
675802,0,0,0
675804,0,0,0
675807,0,0,0
675809,0,0,0
675812,0,0,0
675814,0,0,0
675817,0,0,0
675819,0,0,0
675822,0,0,0
675824,0,0,0
675827,0,0,0
675829,0,0,0
675832,0,0,0
675834,0,0,0
675837,0,0,0
675840,0,0,0
675843,0,0,0
675845,0,0,0
675848,0,0,0
675850,0,0,0
675853,0,0,0
675855,0,0,0
675858,0,0,0
675860,0,0,0
675863,0,0,0
675865,0,0,0
675868,0,0,0
675870,0,0,0
675873,0,0,0
675875,0,0,0
675877,0,0,0
675880,0,0,0
675883,0,0,0
675886,0,0,0
675888,0,0,0
675891,0,0,0
675893,0,0,0
675896,0,0,0
675898,0,0,0
675901,0,0,0
675903,0,0,0
675906,0,0,0
675908,0,0,0
675911,0,0,0
675913,0,0,0
675916,0,0,0
675918,0,0,0
675921,0,0,0
675923,0,0,0
675927,0,0,0
675929,0,0,0
675932,0,0,0
675934,0,0,0
675937,0,0,0
675939,0,0,0
675942,0,0,0
675944,0,0,0
675947,0,0,0
675949,0,0,0
675952,0,0,0
675954,0,0,0
675957,0,0,0
675959,0,0,0
675962,0,0,0
675964,0,0,0
675968,0,0,0
675970,0,0,0
675973,0,0,0
675975,0,0,0
675978,0,0,0
675980,0,0,0
675983,0,0,0
675985,0,0,0
675988,0,0,0
675990,0,0,0
675993,0,0,0
675995,0,0,0
675998,0,0,0
676000,0,0,0
676003,0,0,0
676005,0,0,0
676007,0,0,0
676011,0,0,0
676013,0,0,0
676016,0,0,0
676018,0,0,0
676021,0,0,0
676023,0,0,0
676026,0,0,0
676028,0,0,0
676031,0,0,0
676033,0,0,0
676036,0,0,0
676038,0,0,0
676041,0,0,0
676043,0,0,0
676046,0,0,0
676048,0,0,0
676051,0,0,0
676054,0,0,0
676057,0,0,0
676059,0,0,0
676062,0,0,0
676064,0,0,0
676067,0,0,0
676069,0,0,0
676072,0,0,0
676074,0,0,0
676077,0,0,0
676079,0,0,0
676082,0,0,0
676084,0,0,0
676087,0,0,0
676089,0,0,0
676092,0,0,0
676094,0,0,0
676098,0,0,0
676100,0,0,0
676103,0,0,0
676105,0,0,0
676108,0,0,0
676110,0,0,0
676113,0,0,0
676115,0,0,0
676118,0,0,0
676120,0,0,0
676123,0,0,0
676125,0,0,0
676128,0,0,0
676130,0,0,0
676133,0,0,0
676135,0,0,0
676137,0,0,0
676141,0,0,0
676143,0,0,0
676146,0,0,0
676148,0,0,0
676151,0,0,0
676153,0,0,0
676156,0,0,0
676158,0,0,0
676161,0,0,0
676163,0,0,0
676166,0,0,0
676168,0,0,0
676171,0,0,0
676173,0,0,0
676176,0,0,0
676178,0,0,0
676182,0,0,0
676184,0,0,0
676187,0,0,0
676189,0,0,0
676192,0,0,0
676194,0,0,0
676197,0,0,0
676199,0,0,0
676202,0,0,0
676204,0,0,0
676207,0,0,0
676209,0,0,0
676212,0,0,0
676214,0,0,0
676217,0,0,0
676219,0,0,0
676222,0,0,0
676225,0,0,0
676228,0,0,0
676230,0,0,0
676233,0,0,0
676235,0,0,0
676238,0,0,0
676240,0,0,0
676243,0,0,0
676245,0,0,0
676248,0,0,0
676250,0,0,0
676253,0,0,0
676255,0,0,0
676258,0,0,0
676260,0,0,0
676263,0,0,0
676265,0,0,0
676268,0,0,0
676271,0,0,0
676273,0,0,0
676276,0,0,0
676278,0,0,0
676281,0,0,0
676283,0,0,0
676286,0,0,0
676288,0,0,0
676291,0,0,0
676293,0,0,0
676296,0,0,0
676298,0,0,0
676301,0,0,0
676303,0,0,0
676306,0,0,0
676308,0,0,0
676312,0,0,0
676314,0,0,0
676317,0,0,0
676319,0,0,0
676322,0,0,0
676324,0,0,0
676327,0,0,0
676329,0,0,0
676332,0,0,0
676334,0,0,0
676337,0,0,0
676339,0,0,0
676342,0,0,0
676344,0,0,0
676347,0,0,0
676349,0,0,0
676353,0,0,0
676355,0,0,0
676358,0,0,0
676360,0,0,0
676363,0,0,0
676365,0,0,0
676368,0,0,0
676370,0,0,0
676373,0,0,0
676375,0,0,0
676378,0,0,0
676380,0,0,0
676383,0,0,0
676385,0,0,0
676388,0,0,0
676390,0,0,0
676393,0,0,0
676396,0,0,0
676398,0,0,0
676401,0,0,0
676403,0,0,0
676406,0,0,0
676408,0,0,0
676411,0,0,0
676413,0,0,0
676416,0,0,0
676418,0,0,0
676421,0,0,0
676423,0,0,0
676426,0,0,0
676428,0,0,0
676431,0,0,0
676433,0,0,0
676436,0,0,0
676439,0,0,0
676442,0,0,0
676444,0,0,0
676447,0,0,0
676449,0,0,0
676452,0,0,0
676454,0,0,0
676457,0,0,0
676459,0,0,0
676462,0,0,0
676464,0,0,0
676467,0,0,0
676469,0,0,0
676472,0,0,0
676474,0,0,0
676477,0,0,0
676480,0,0,0
676483,0,0,0
676485,0,0,0
676488,0,0,0
676490,0,0,0
676493,0,0,0
676495,0,0,0
676498,0,0,0
676500,0,0,0
676503,0,0,0
676505,0,0,0
676508,0,0,0
676510,0,0,0
676513,0,0,0
676515,0,0,0
676518,0,0,0
676520,0,0,0
676524,0,0,0
676526,0,0,0
676528,0,0,0
676531,0.132704,0.1312212,0
676533,0.132704,0.1312212,0
676536,0.2406627,0.2373883,-0.01978234
676538,0.2406627,0.2373883,-0.01978234
676541,0.3274564,0.324455,-0.03426402
676543,0.3986039,0.3946573,-0.04423466
676546,0.3986039,0.3946573,-0.04423466
676548,0.4751895,0.4693892,-0.05934703
676551,0.5898349,0.5804718,-0.09278741
676553,0.5898349,0.5804718,-0.09278741
676556,0.6246366,0.6132555,-0.1065312
676558,0.6246366,0.6132555,-0.1065312
676561,0.6537194,0.6404136,-0.1203313
676563,0.6763749,0.6608641,-0.1341704
676567,0.6763749,0.6608641,-0.1341704
676569,0.711069,0.6926687,-0.1545051
676572,0.742568,0.7203645,-0.1735894
676574,0.742568,0.7203645,-0.1735894
676577,0.7694854,0.7438844,-0.1907741
676579,0.7694854,0.7438844,-0.1907741
676582,0.7853427,0.7579558,-0.2017412
676584,0.7925354,0.7641266,-0.2065338
676587,0.7925354,0.7641266,-0.2065338
676589,0.7710097,0.7446731,-0.1958353
676592,0.7538139,0.7287365,-0.1876719
676594,0.7538139,0.7287365,-0.1876719
676597,0.7047113,0.6841414,-0.1619255
676599,0.7047113,0.6841414,-0.1619255
676602,0.6867107,0.6679325,-0.1532334
676604,0.6827098,0.6644077,-0.1506579
676608,0.6827098,0.6644077,-0.1506579
676610,0.6789736,0.6608641,-0.1493534
676613,0.6807005,0.6623429,-0.1493534
676615,0.6807005,0.6623429,-0.1493534
676618,0.6815624,0.6632286,-0.1506579
676620,0.6815624,0.6632286,-0.1506579
676623,0.6685182,0.6510199,-0.1467098
676625,0.6570037,0.6404136,-0.1412742
676628,0.6570037,0.6404136,-0.1412742
676630,0.6327289,0.6189722,-0.1235407
676633,0.612617,0.6006827,-0.1101434
676635,0.5951191,0.5851721,-0.09891172
676638,0.5951191,0.5861744,-0.09278741
676640,0.5951191,0.5861744,-0.09278741
676643,0.5944612,0.5861744,-0.08846933
676645,0.6265134,0.616438,-0.1027921
676648,0.6265134,0.616438,-0.1027921
676651,0.6743467,0.6611602,-0.1219466
676654,0.6641131,0.652521,-0.1119058
676656,0.6641131,0.652521,-0.1119058
676658,0.6555129,0.6452838,-0.1046783
676661,0.6555129,0.6452838,-0.1046783
676663,0.6480073,0.6391903,-0.09691329
676666,0.6410245,0.633656,-0.08622923
676668,0.6410245,0.633656,-0.08622923
676671,0.6394964,0.6321102,-0.08622923
676673,0.6394964,0.6321102,-0.08622923
676676,0.6373509,0.63025,-0.08392937
676678,0.616438,0.6110179,-0.07401875
676681,0.616438,0.6110179,-0.07401875
676683,0.6006827,0.5957764,-0.0656106
676686,0.5964329,0.5914913,-0.06852804
676688,0.5964329,0.5914913,-0.06852804
676691,0.5924829,0.5875081,-0.06852804
676694,0.5924829,0.5875081,-0.06852804
676697,0.5740312,0.5699261,-0.05934703
676699,0.5616257,0.5581307,-0.05595291
676702,0.5616257,0.5581307,-0.05595291
676704,0.5507192,0.5475121,-0.05233916
676707,0.5381398,0.5359538,-0.04423466
676709,0.5381398,0.5359538,-0.04423466
676712,0.5271187,0.5260038,-0.03956468
676714,0.5271187,0.5260038,-0.03956468
676717,0.5151029,0.5154827,-0.01978234
676719,0.5101407,0.5105241,-0.01978234
676722,0.5101407,0.5105241,-0.01978234
676724,0.5260038,0.5260038,-0.02797646
676727,0.5503638,0.5482264,-0.04423466
676729,0.5503638,0.5482264,-0.04423466
676732,0.5595313,0.556375,-0.05233916
676734,0.5595313,0.556375,-0.05233916
676738,0.5671728,0.5630175,-0.05934703
676740,0.5706123,0.5654452,-0.06852804
676743,0.5706123,0.5654452,-0.06852804
676745,0.5753932,0.5688952,-0.07401875
676748,0.5740312,0.5678623,-0.07132626
676750,0.5740312,0.5678623,-0.07132626
676753,0.5664824,0.5619739,-0.06255726
676755,0.5664824,0.5619739,-0.06255726
676758,0.5602303,0.556375,-0.05595291
676760,0.5602303,0.556375,-0.05595291
676763,0.5602303,0.556375,-0.05595291
676765,0.577091,0.5723243,-0.06255726
676768,0.5831623,0.5787839,-0.05934703
676770,0.5831623,0.5787839,-0.05934703
676773,0.5858405,0.5804718,-0.06852804
676775,0.5858405,0.5814822,-0.07661668
676779,0.5901666,0.5828267,-0.07912937
676781,0.5908293,0.5831623,-0.08622923
676784,0.5908293,0.5831623,-0.08622923
676786,0.591822,0.5831623,-0.08846933
676789,0.587175,0.5781073,-0.09065409
676791,0.5834977,0.5740312,-0.09487279
676793,0.5804718,0.5709552,-0.09487279
676796,0.5804718,0.5709552,-0.09487279
676798,0.5797972,0.5695826,-0.09891172
676801,0.5794597,0.5685511,-0.1008706
676803,0.5801346,0.5688952,-0.1046783
676806,0.5811456,0.5695826,-0.1065312
676808,0.5811456,0.5695826,-0.1065312
676811,0.5818186,0.5699261,-0.1083524
676813,0.5767518,0.5650989,-0.1065312
676816,0.5767518,0.5650989,-0.1065312
676818,0.5699261,0.5581307,-0.1065312
676822,0.5719823,0.5591815,-0.1101434
676824,0.5719823,0.5591815,-0.1101434
676827,0.5733491,0.5609285,-0.1101434
676829,0.5733491,0.5609285,-0.1101434
676832,0.5730078,0.5602303,-0.1083524
676834,0.5733491,0.5605795,-0.1101434
676837,0.5733491,0.5605795,-0.1101434
676839,0.5767518,0.5637122,-0.1101434
676842,0.5794597,0.5664824,-0.1101434
676844,0.5818186,0.5688952,-0.1101434
676847,0.5821548,0.569239,-0.1119058
676849,0.5821548,0.569239,-0.1119058
676852,0.5821548,0.569239,-0.1119058
676854,0.5824909,0.569239,-0.1136409
676857,0.5828267,0.569239,-0.1153499
676859,0.5831623,0.569239,-0.1153499
676862,0.5794597,0.5654452,-0.1153499
676865,0.5794597,0.5654452,-0.1153499
676868,0.5757331,0.5616257,-0.1170339
676870,0.5757331,0.5616257,-0.1170339
676873,0.5740312,0.5588315,-0.1170339
676875,0.5760729,0.5609285,-0.1203313
676878,0.5760729,0.5609285,-0.1203313
676880,0.5706123,0.55778,-0.1101434
676883,0.5664824,0.5546138,-0.1046783
676885,0.5664824,0.5546138,-0.1046783
676888,0.5626699,0.5524929,-0.09691329
676890,0.5609285,0.5521386,-0.09065409
676893,0.5595313,0.5517841,-0.08156469
676895,0.5581307,0.5517841,-0.07401875
676898,0.5581307,0.5517841,-0.07401875
676900,0.5570779,0.5517841,-0.06852804
676903,0.5560232,0.5517841,-0.06255726
676905,0.5560232,0.5517841,-0.06255726
676909,0.5464389,0.5428462,-0.05233916
676911,0.5464389,0.5428462,-0.05233916
676914,0.5403171,0.5381398,-0.04845664
676916,0.5355885,0.5341251,-0.04423466
676919,0.5355885,0.5341251,-0.04423466
676921,0.5319225,0.5308178,-0.03956468
676923,0.5248867,0.5245137,-0.02797646
676926,0.5248867,0.5245137,-0.02797646
676928,0.5222706,0.5226451,-0.01978234
676931,0.5222706,0.5226451,-0.01978234
676933,0.5200178,0.5207698,-0.02797646
676936,0.518133,0.5188877,-0.02797646
676938,0.518133,0.5188877,-0.02797646
676941,0.5218958,0.5218958,-0.02797646
676943,0.5218958,0.5218958,-0.02797646
676946,0.5226451,0.5226451,-0.01978234
676948,0.5203939,0.5211454,0
676952,0.5203939,0.5211454,0
676954,0.5192646,0.5203939,0
676957,0.5200178,0.5211454,-0.01978234
676959,0.5200178,0.5211454,-0.01978234
676962,0.5203939,0.5215207,0
676964,0.5203939,0.5215207,0
676967,0.5169988,0.5177552,-0.01978234
676969,0.513962,0.5151029,0
676972,0.513962,0.5151029,0
676974,0.5143426,0.5151029,-0.02797646
676977,0.5147229,0.5154827,-0.02797646
676979,0.5147229,0.5154827,-0.02797646
676982,0.509757,0.5112901,-0.01978234
676984,0.509757,0.5112901,-0.01978234
676987,0.5082192,0.509757,0
676989,0.509757,0.5109072,0
676993,0.509757,0.5109072,0
676995,0.5105241,0.5112901,0
676998,0.5147229,0.5154827,0
677000,0.5147229,0.5154827,0
677003,0.5166202,0.5166202,-0.02797646
677005,0.5166202,0.5166202,-0.02797646
677008,0.5196414,0.5200178,0
677010,0.5222706,0.5230194,-0.01978234
677013,0.5222706,0.5230194,-0.01978234
677015,0.5274898,0.5274898,-0.01978234
677018,0.5289715,0.5289715,-0.01978234
677020,0.5289715,0.5289715,-0.01978234
677023,0.5274898,0.5274898,-0.02797646
677025,0.5274898,0.5274898,-0.02797646
677028,0.5260038,0.5267473,0
677030,0.5921526,0.5891711,-0.05233916
677033,0.5921526,0.5891711,-0.05233916
677036,0.6177064,0.6135744,-0.06852804
677039,0.6202354,0.6158028,-0.0656106
677041,0.6202354,0.6158028,-0.0656106
677044,0.6224399,0.6183397,-0.0656106
677046,0.6224399,0.6183397,-0.0656106
677049,0.6705639,0.6629335,-0.09065409
677051,0.6895542,0.680413,-0.1008706
677053,0.6895542,0.680413,-0.1008706
677056,0.6968932,0.6869956,-0.1046783
677058,0.7035998,0.6932335,-0.1083524
677061,0.7035998,0.6932335,-0.1083524
677063,0.7091401,0.6982958,-0.1119058
677066,0.7091401,0.6982958,-0.1119058
677068,0.7096917,0.6985759,-0.1119058
677071,0.6887025,0.6792617,-0.1027921
677073,0.6887025,0.6792617,-0.1027921
677076,0.6723125,0.6641131,-0.09278741
677079,0.6723125,0.6641131,-0.09278741
677082,0.6486109,0.6419396,-0.08156469
677084,0.6145305,0.6106976,-0.0656106
677087,0.6145305,0.6106976,-0.0656106
677089,0.5993783,0.5964329,-0.05595291
677092,0.5875081,0.5851721,-0.05233916
677094,0.5875081,0.5851721,-0.05233916
677097,0.5781073,0.5764125,-0.04423466
677099,0.5781073,0.5764125,-0.04423466
677102,0.5623221,0.5619739,-0.03956468
677104,0.5549665,0.5546138,-0.03426402
677107,0.5549665,0.5546138,-0.03426402
677109,0.5489398,0.5489398,-0.02797646
677112,0.5406791,0.5410409,-0.01978234
677114,0.5406791,0.5410409,-0.01978234
677117,0.5341251,0.5348573,-0.02797646
677120,0.5289715,0.53008,-0.01978234
677123,0.5248867,0.5260038,0
677125,0.5218958,0.5233933,-0.01978234
677128,0.5218958,0.5233933,-0.01978234
677130,0.5196414,0.5207698,0
677133,0.5173771,0.5196414,0
677135,0.5173771,0.5196414,0
677138,0.5166202,0.5188877,-0.01978234
677140,0.5166202,0.5188877,-0.01978234
677143,0.5173771,0.5192646,0
677145,0.5173771,0.5196414,0
677148,0.5173771,0.5196414,0
677150,0.518133,0.5192646,-0.02797646
677153,0.5177552,0.5192646,0
677155,0.5177552,0.5192646,0
677158,0.5173771,0.5192646,0
677160,0.5173771,0.5192646,0
677164,0.5173771,0.5188877,0
677166,0.5169988,0.5188877,0
677169,0.5169988,0.5188877,0
677171,0.5169988,0.5188877,0
677174,0.518133,0.5203939,0
677176,0.518133,0.5203939,0
677179,0.5188877,0.5215207,0
677181,0.5188877,0.5215207,0
677183,0.5196414,0.5222706,0
677186,0.5200178,0.5226451,0
677188,0.5200178,0.5226451,0
677191,0.5293413,0.5319225,0
677193,0.5319225,0.5344914,0
677196,0.5319225,0.5344914,0
677198,0.5337587,0.5363187,0
677201,0.5337587,0.5363187,0
677203,0.5352231,0.5381398,0
677207,0.5289715,0.5315546,0
677209,0.5289715,0.5315546,0
677212,0.5267473,0.5293413,0
677214,0.5267473,0.5293413,0
677217,0.5263757,0.5297108,0
677219,0.5274898,0.5297108,0
677222,0.5274898,0.5297108,0
677224,0.5355885,0.5381398,-0.01978234
677227,0.5385033,0.5410409,0
677229,0.5385033,0.5410409,0
677232,0.5363187,0.5385033,-0.02797646
677234,0.5363187,0.5385033,-0.02797646
677237,0.5315546,0.5337587,0
677239,0.5297108,0.5322903,0
677242,0.5297108,0.5322903,0
677244,0.5282311,0.5308178,0
677248,0.53008,0.5326577,0
677250,0.53008,0.5326577,0
677253,0.5319225,0.5341251,0
677255,0.5319225,0.5341251,0
677258,0.598071,0.5961047,-0.04845664
677260,0.6233823,0.6202354,-0.06255726
677263,0.6233823,0.6202354,-0.06255726
677265,0.6249498,0.6214961,-0.06255726
677268,0.6333472,0.6296288,-0.0656106
677270,0.6333472,0.6296288,-0.0656106
677273,0.6398023,0.6348901,-0.06852804
677275,0.6398023,0.6348901,-0.06852804
677278,0.6449805,0.640108,-0.07401875
677280,0.6504185,0.6449805,-0.07661668
677283,0.6504185,0.6449805,-0.07661668
677285,0.6596788,0.65342,-0.08156469
677288,0.6647022,0.6578966,-0.08622923
677291,0.6647022,0.6578966,-0.08622923
677294,0.6691033,0.6620474,-0.08622923
677296,0.6691033,0.6620474,-0.08622923
677299,0.6720214,0.6644077,-0.09065409
677301,0.6766641,0.6691033,-0.09487279
677304,0.6766641,0.6691033,-0.09487279
677306,0.6781085,0.66998,-0.09278741
677309,0.6795497,0.6711472,-0.09691329
677311,0.6795497,0.6711472,-0.09691329
677313,0.6652907,0.6578966,-0.08622923
677316,0.6652907,0.6578966,-0.08622923
677318,0.6440698,0.6385778,-0.07401875
677321,0.6283845,0.6243232,-0.06852804
677323,0.6283845,0.6243232,-0.06852804
677326,0.6158028,0.6129363,-0.05934703
677328,0.6013339,0.5993783,-0.05233916
677331,0.6013339,0.5993783,-0.05233916
677334,0.589503,0.5885065,-0.04423466
677337,0.5797972,0.5794597,-0.03956468
677339,0.5695826,0.5699261,-0.03426402
677342,0.5612772,0.5619739,-0.03426402
677344,0.5612772,0.5619739,-0.03426402
677347,0.5695826,0.5695826,-0.03426402
677349,0.5695826,0.5695826,-0.03426402
677352,0.5824909,0.5811456,-0.04845664
677354,0.57743,0.5760729,-0.04423466
677357,0.57743,0.5760729,-0.04423466
677359,0.5730078,0.5719823,-0.04423466
677362,0.5695826,0.5682068,-0.03956468
677364,0.5695826,0.5682068,-0.03956468
677367,0.5591815,0.5595313,-0.03956468
677369,0.5591815,0.5595313,-0.03956468
677372,0.5535544,0.5542608,-0.02797646
677374,0.5492961,0.5500081,-0.02797646
677378,0.5492961,0.5500081,-0.02797646
677380,0.5453635,0.5467969,-0.01978234
677383,0.5399548,0.5417637,-0.01978234
677385,0.5399548,0.5417637,-0.01978234
677388,0.5517841,0.5528469,-0.02797646
677390,0.5517841,0.5528469,-0.02797646
677393,0.5619739,0.5623221,-0.03426402
677395,0.5702693,0.5699261,-0.03956468
677398,0.5702693,0.5699261,-0.03956468
677400,0.569239,0.5685511,-0.04423466
677403,0.5637122,0.563365,-0.03956468
677405,0.5637122,0.563365,-0.03956468
677408,0.5595313,0.5598809,-0.03426402
677410,0.5595313,0.5598809,-0.03426402
677413,0.5532007,0.5535544,-0.03956468
677415,0.5507192,0.5514293,-0.01978234
677419,0.5507192,0.5514293,-0.01978234
677421,0.5492961,0.5496522,-0.02797646
677424,0.5457222,0.5464389,-0.02797646
677426,0.5457222,0.5464389,-0.02797646
677429,0.5457222,0.5467969,-0.02797646
677431,0.5457222,0.5467969,-0.02797646
677434,0.5457222,0.5467969,0
677436,0.5457222,0.5478694,-0.02797646
677439,0.5457222,0.5478694,-0.02797646
677441,0.5743721,0.5743721,-0.03426402
677443,0.591822,0.5908293,-0.03956468
677446,0.591822,0.5908293,-0.03956468
677448,0.6065179,0.6045791,-0.05233916
677451,0.6065179,0.6045791,-0.05233916
677453,0.6192883,0.616438,-0.05595291
677456,0.6311808,0.6277614,-0.06255726
677458,0.6311808,0.6277614,-0.06255726
677462,0.6311808,0.6277614,-0.06255726
677464,0.6311808,0.6277614,-0.06255726
677467,0.6311808,0.6277614,-0.06255726
677469,0.6434618,0.6388841,-0.06852804
677472,0.6434618,0.6388841,-0.06852804
677474,0.6531205,0.6477052,-0.07401875
677477,0.667053,0.6608641,-0.08156469
677479,0.667053,0.6608641,-0.08156469
677482,0.6726035,0.6655847,-0.08392937
677484,0.6726035,0.6655847,-0.08392937
677487,0.6772422,0.66998,-0.08846933
677489,0.6801254,0.6728944,-0.08846933
677492,0.6801254,0.6728944,-0.08846933
677494,0.6849989,0.6775311,-0.09278741
677497,0.6869956,0.6786853,-0.09278741
677499,0.6869956,0.6786853,-0.09278741
677502,0.6887025,0.680988,-0.09278741
677505,0.6887025,0.680988,-0.09278741
677508,0.6892704,0.6807005,-0.09691329
677510,0.6915378,0.6824232,-0.09891172
677513,0.6915378,0.6824232,-0.09891172
677515,0.6734757,0.6658786,-0.08846933
677518,0.6590852,0.652521,-0.08392937
677520,0.6590852,0.652521,-0.08392937
677523,0.6546168,0.6483091,-0.08156469
677525,0.6546168,0.6483091,-0.08156469
677528,0.6740565,0.6658786,-0.09487279
677530,0.6932335,0.6832828,-0.1046783
677533,0.6932335,0.6832828,-0.1046783
677535,0.709416,0.6977351,-0.1153499
677538,0.711069,0.6991359,-0.1170339
677540,0.711069,0.6991359,-0.1170339
677543,0.7149112,0.7024865,-0.1219466
677545,0.7149112,0.7024865,-0.1219466
677549,0.7116191,0.6988559,-0.1203313
677551,0.7088641,0.6963314,-0.1203313
677554,0.7088641,0.6963314,-0.1203313
677556,0.6855699,0.6749268,-0.1101434
677559,0.667053,0.6573014,-0.1008706
677561,0.667053,0.6573014,-0.1008706
677564,0.6471007,0.6413296,-0.07912937
677566,0.6471007,0.6413296,-0.07912937
677569,0.6437659,0.6398023,-0.0656106
677571,0.6602717,0.6573014,-0.06255726
677573,0.6602717,0.6573014,-0.06255726
677576,0.6743467,0.6717301,-0.05934703
677578,0.687565,0.6867107,-0.04845664
677581,0.687565,0.6867107,-0.04845664
677583,0.6892704,0.6892704,-0.03956468
677586,0.6892704,0.6892704,-0.03956468
677588,0.7030433,0.7033216,-0.03956468
677592,0.7151849,0.7149112,-0.03956468
677594,0.7151849,0.7149112,-0.03956468
677597,0.7217214,0.7222635,-0.03426402
677599,0.719005,0.7200928,-0.03426402
677602,0.719005,0.7200928,-0.03426402
677604,0.7271236,0.7281993,-0.03426402
677607,0.7271236,0.7281993,-0.03426402
677609,0.7412493,0.7415132,-0.03426402
677612,0.7359507,0.7364823,-0.03426402
677614,0.7359507,0.7364823,-0.03426402
677617,0.7316842,0.733287,-0.02797646
677619,0.7316842,0.733287,-0.02797646
677622,0.729005,0.7306137,-0.02797646
677624,0.7467723,0.747558,-0.03426402
677627,0.7467723,0.747558,-0.03426402
677629,0.7569224,0.7574393,-0.03956468
677633,0.7656615,0.7659171,-0.04423466
677635,0.7656615,0.7659171,-0.04423466
677638,0.7732905,0.7730374,-0.04423466
677640,0.7732905,0.7730374,-0.04423466
677643,0.7905577,0.7895671,-0.05233916
677645,0.7979487,0.796476,-0.05595291
677648,0.7979487,0.796476,-0.05595291
677650,0.8042993,0.8023506,-0.05934703
677653,0.8098756,0.8074558,-0.05934703
677655,0.8098756,0.8074558,-0.05934703
677658,0.8175707,0.8151737,-0.06255726
677660,0.8175707,0.8151737,-0.06255726
677663,0.8209146,0.8180492,-0.0656106
677665,0.8228193,0.8199606,-0.0656106
677668,0.8228193,0.8199606,-0.0656106
677670,0.826142,0.8232948,-0.0656106
677673,0.828271,0.825194,-0.06852804
677676,0.828271,0.825194,-0.06852804
677679,0.8301588,0.8268523,-0.0656106
677681,0.8301588,0.8268523,-0.0656106
677684,0.8327476,0.829923,-0.06852804
677686,0.8306301,0.8280347,-0.0656106
677689,0.8306301,0.8280347,-0.0656106
677691,0.829923,0.8263788,-0.0656106
677694,0.8287433,0.826142,-0.0656106
677696,0.8287433,0.826142,-0.0656106
677699,0.8275619,0.8242449,-0.0656106
677701,0.8275619,0.8242449,-0.0656106
677703,0.8244823,0.8211529,-0.06852804
677706,0.8228193,0.8201992,-0.06255726
677708,0.8228193,0.8201992,-0.06255726
677711,0.8221055,0.8192443,-0.0656106
677713,0.8025945,0.800886,-0.05233916
677716,0.7865875,0.7855918,-0.04423466
677719,0.7825971,0.7818466,-0.04423466
677722,0.7825971,0.7818466,-0.04423466
677724,0.7788376,0.7783349,-0.03956468
677727,0.7758168,0.7753122,-0.03956468
677729,0.7758168,0.7753122,-0.03956468
677732,0.7600183,0.7602757,-0.03426402
677734,0.7465102,0.747558,-0.01978234
677737,0.7465102,0.747558,-0.01978234
677739,0.7459858,0.7467723,-0.02797646
677742,0.7459858,0.7467723,-0.02797646
677744,0.7446731,0.7459858,-0.01978234
677747,0.7467723,0.7472962,-0.02797646
677749,0.7467723,0.7472962,-0.02797646
677752,0.7480813,0.7483428,-0.03426402
677754,0.7255072,0.7271236,0
677757,0.7255072,0.7271236,0
677760,0.7157319,0.7179157,0
677763,0.7157319,0.7179157,0
677765,0.7069291,0.7091401,0
677768,0.6985759,0.7019292,0
677770,0.6985759,0.7019292,0
677773,0.7236168,0.7257769,0
677775,0.7236168,0.7257769,0
677778,0.7322189,0.7340872,-0.01978234
677780,0.7263159,0.7284679,-0.01978234
677783,0.7263159,0.7284679,-0.01978234
677785,0.7209076,0.7233464,0
677788,0.6766641,0.680413,0
677790,0.6766641,0.680413,0
677793,0.659382,0.6638185,0
677795,0.659382,0.6638185,0
677798,0.6531205,0.6575991,0
677800,0.6471007,0.6516207,0
677804,0.6471007,0.6516207,0
677806,0.6413296,0.646193,0
677809,0.6388841,0.6434618,0
677811,0.6388841,0.6434618,0
677814,0.6422443,0.6464956,0
677816,0.6422443,0.6464956,0
677819,0.6440698,0.6486109,0
677821,0.6590852,0.6626383,0
677824,0.6590852,0.6626383,0
677826,0.6705639,0.6740565,0
677829,0.6795497,0.6827098,0
677831,0.6795497,0.6827098,0
677833,0.6775311,0.6789736,-0.01978234
677836,0.6775311,0.6789736,-0.01978234
677838,0.6775311,0.6789736,-0.01978234
677841,0.6775311,0.6769533,-0.04423466
677843,0.6775311,0.6769533,-0.04423466
677847,0.6769533,0.6755064,-0.05233916
677849,0.6766641,0.6740565,-0.05934703
677852,0.6766641,0.6740565,-0.05934703
677854,0.6766641,0.6731851,-0.06852804
677857,0.6766641,0.6731851,-0.06852804
677859,0.675796,0.6708556,-0.07661668
677862,0.660568,0.6561096,-0.07132626
677864,0.660568,0.6561096,-0.07132626
677867,0.6471007,0.6434618,-0.0656106
677869,0.635814,0.6327289,-0.06255726
677872,0.635814,0.6327289,-0.06255726
677874,0.633656,0.6296288,-0.0656106
677877,0.633656,0.6296288,-0.0656106
677879,0.635814,0.6308707,-0.07132626
677882,0.6367366,0.6311808,-0.07401875
677884,0.6367366,0.6311808,-0.07401875
677888,0.6373509,0.6308707,-0.07912937
677890,0.6233823,0.6170725,-0.07912937
677893,0.6233823,0.6170725,-0.07912937
677895,0.6113381,0.6045791,-0.07912937
677898,0.6113381,0.6045791,-0.07912937
677900,0.615485,0.607807,-0.08846933
677903,0.6081289,0.6013339,-0.08392937
677905,0.6081289,0.6013339,-0.08392937
677908,0.6019843,0.5954478,-0.07661668
677910,0.6019843,0.5954478,-0.07661668
677913,0.5951191,0.589503,-0.07132626
677915,0.5947903,0.5891711,-0.07401875
677918,0.5947903,0.5891711,-0.07401875
677920,0.5931431,0.587175,-0.07132626
677923,0.5947903,0.5888388,-0.07132626
677925,0.5947903,0.5888388,-0.07132626
677928,0.6010084,0.5951191,-0.07401875
677931,0.6010084,0.5951191,-0.07401875
677934,0.605226,0.5997046,-0.07661668
677936,0.614212,0.6081289,-0.07912937
677939,0.614212,0.6081289,-0.07912937
677941,0.6192883,0.6122975,-0.07912937
677944,0.6221254,0.615485,-0.07661668
677946,0.6221254,0.615485,-0.07661668
677949,0.6333472,0.6268256,-0.08156469
677951,0.6333472,0.6268256,-0.08156469
677954,0.6367366,0.6299395,-0.08156469
677956,0.6410245,0.6345818,-0.08156469
677959,0.6410245,0.6345818,-0.08156469
677961,0.6311808,0.6262009,-0.07401875
677963,0.6202354,0.616438,-0.0656106
677966,0.6202354,0.616438,-0.0656106
677968,0.6110179,0.6081289,-0.05934703
677971,0.6110179,0.6081289,-0.05934703
677974,0.6324196,0.6258884,-0.08156469
677977,0.640108,0.6324196,-0.09278741
677979,0.640108,0.6324196,-0.09278741
677982,0.6652907,0.6537194,-0.1119058
677984,0.6743467,0.661456,-0.1186941
677987,0.6743467,0.661456,-0.1186941
677989,0.6867107,0.6737661,-0.1203313
677992,0.6867107,0.6737661,-0.1203313
677994,0.6912548,0.6783969,-0.1203313
677997,0.6608641,0.6513204,-0.09891172
677999,0.6608641,0.6513204,-0.09891172
678002,0.6489125,0.6410245,-0.09065409
678004,0.6474031,0.6398023,-0.08622923
678007,0.6474031,0.6398023,-0.08622923
678009,0.6437659,0.6367366,-0.08392937
678012,0.6437659,0.6367366,-0.08392937
678014,0.64589,0.6388841,-0.08392937
678018,0.6474031,0.6407191,-0.08156469
678020,0.6474031,0.6407191,-0.08156469
678023,0.6419396,0.6342734,-0.08846933
678025,0.6394964,0.6314908,-0.09065409
678028,0.6394964,0.6314908,-0.09065409
678030,0.6355062,0.6265134,-0.09691329
678033,0.6355062,0.6265134,-0.09691329
678035,0.6339648,0.6240098,-0.1008706
678038,0.6236961,0.6132555,-0.1027921
678040,0.6236961,0.6132555,-0.1027921
678043,0.6196041,0.608772,-0.1046783
678045,0.6196041,0.608772,-0.1046783
678048,0.6161205,0.605226,-0.1046783
678050,0.6103771,0.5990517,-0.1065312
678053,0.6103771,0.5990517,-0.1065312
678055,0.6055493,0.5941319,-0.1065312
678059,0.5977437,0.5858405,-0.1101434
678061,0.5977437,0.5858405,-0.1101434
678064,0.5954478,0.5828267,-0.1101434
678066,0.5954478,0.5828267,-0.1101434
678069,0.5928131,0.5797972,-0.1119058
678071,0.5834977,0.5719823,-0.1027921
678074,0.5834977,0.5719823,-0.1027921
678076,0.5777687,0.5685511,-0.09487279
678079,0.5702693,0.5630175,-0.07661668
678081,0.5702693,0.5630175,-0.07661668
678084,0.5678623,0.5619739,-0.06852804
678086,0.5678623,0.5619739,-0.06852804
678089,0.5657911,0.5605795,-0.06255726
678091,0.5584812,0.5556712,-0.04845664
678094,0.5584812,0.5556712,-0.04845664
678096,0.569239,0.5661368,-0.04845664
678098,0.5848376,0.5818186,-0.05595291
678102,0.5848376,0.5818186,-0.05595291
678104,0.583833,0.5811456,-0.05233916
678107,0.583833,0.5811456,-0.05233916
678109,0.583833,0.5804718,-0.05233916
678112,0.5831623,0.5804718,-0.04845664
678114,0.5831623,0.5804718,-0.04845664
678117,0.5974163,0.5941319,-0.05595291
678119,0.6081289,0.6042554,-0.06255726
678122,0.6081289,0.6042554,-0.06255726
678124,0.616438,0.6122975,-0.0656106
678127,0.616438,0.6122975,-0.0656106
678129,0.6262009,0.6214961,-0.06852804
678132,0.633656,0.6286958,-0.07132626
678134,0.633656,0.6286958,-0.07132626
678137,0.640108,0.6339648,-0.07661668
678139,0.652221,0.6452838,-0.08156469
678142,0.652221,0.6452838,-0.08156469
678145,0.6629335,0.6546168,-0.09278741
678148,0.6629335,0.6546168,-0.09278741
678150,0.6720214,0.6620474,-0.1027921
678153,0.6895542,0.6760855,-0.1235407
678155,0.6895542,0.6760855,-0.1235407
678158,0.6977351,0.6827098,-0.1341704
678160,0.6929511,0.6766641,-0.1398823
678163,0.6929511,0.6766641,-0.1398823
678165,0.6838553,0.667053,-0.1398823
678168,0.6838553,0.667053,-0.1398823
678170,0.6801254,0.6623429,-0.1440177
678173,0.6829963,0.6647022,-0.1480375
678175,0.6829963,0.6647022,-0.1480375
678178,0.6731851,0.6546168,-0.1480375
678180,0.6731851,0.6546168,-0.1480375
678183,0.6626383,0.644677,-0.1440177
678185,0.6540186,0.6364292,-0.1412742
678189,0.6540186,0.6364292,-0.1412742
678191,0.6617518,0.6422443,-0.1480375
678194,0.6717301,0.6516207,-0.1557664
678196,0.6717301,0.6516207,-0.1557664
678199,0.6778198,0.6567059,-0.1594904
678201,0.6778198,0.6567059,-0.1594904
678204,0.6827098,0.6611602,-0.1631294
678206,0.6946434,0.6720214,-0.1678588
678209,0.6946434,0.6720214,-0.1678588
678211,0.6985759,0.675796,-0.1701742
678214,0.7044336,0.680988,-0.1701742
678216,0.7044336,0.680988,-0.1701742
678219,0.7063754,0.6835691,-0.1701742
678221,0.7063754,0.6835691,-0.1701742
678224,0.708588,0.6852845,-0.1701742
678226,0.7091401,0.6861406,-0.1690205
678228,0.7091401,0.6861406,-0.1690205
678232,0.6909717,0.66998,-0.1594904
678234,0.675796,0.6561096,-0.1519511
678237,0.675796,0.6561096,-0.1519511
678239,0.6740565,0.6549156,-0.1493534
678242,0.6740565,0.6549156,-0.1493534
678244,0.6728944,0.6537194,-0.1480375
678247,0.6792617,0.659382,-0.1519511
678249,0.6792617,0.659382,-0.1519511
678252,0.6812752,0.6611602,-0.1532334
678254,0.6841414,0.6638185,-0.1532334
678257,0.6841414,0.6638185,-0.1532334
678259,0.687565,0.6673463,-0.1545051
678262,0.687565,0.6673463,-0.1545051
678264,0.6696879,0.6516207,-0.14537
678267,0.6422443,0.6262009,-0.1297215
678269,0.6422443,0.6262009,-0.1297215
678273,0.6428534,0.6271377,-0.1282043
678275,0.6425489,0.6274496,-0.1282043
678278,0.6425489,0.6274496,-0.1282043
678280,0.6308707,0.6167554,-0.1203313
678283,0.6202354,0.6074851,-0.1136409
678285,0.6106976,0.5990517,-0.1065312
678288,0.6170725,0.605226,-0.1065312
678290,0.6170725,0.605226,-0.1065312
678293,0.6243232,0.6122975,-0.1083524
678295,0.6324196,0.6199199,-0.1136409
678298,0.6324196,0.6199199,-0.1136409
678300,0.6425489,0.6296288,-0.1153499
678303,0.6425489,0.6296288,-0.1153499
678305,0.6504185,0.6370438,-0.1203313
678308,0.6596788,0.64589,-0.1235407
678310,0.6596788,0.64589,-0.1235407
678313,0.6664661,0.652221,-0.1282043
678316,0.6664661,0.652221,-0.1282043
678319,0.6714388,0.6570037,-0.1312212
678321,0.6629335,0.649214,-0.1235407
678324,0.6629335,0.649214,-0.1235407
678326,0.652521,0.640108,-0.1170339
678329,0.646193,0.6345818,-0.1153499
678331,0.646193,0.6345818,-0.1153499
678334,0.6477052,0.6355062,-0.1153499
678336,0.6477052,0.6355062,-0.1153499
678339,0.6537194,0.6410245,-0.1203313
678341,0.660568,0.6467983,-0.1251145
678344,0.660568,0.6467983,-0.1251145
678346,0.6673463,0.6531205,-0.1297215
678349,0.6749268,0.6599753,-0.1341704
678351,0.6749268,0.6599753,-0.1341704
678354,0.6801254,0.6647022,-0.1370561
678356,0.6801254,0.6647022,-0.1370561
678359,0.6838553,0.6679325,-0.1398823
678362,0.6906884,0.6749268,-0.1426525
678364,0.6906884,0.6749268,-0.1426525
678367,0.6946434,0.6781085,-0.1440177
678369,0.7010924,0.6849989,-0.14537
678372,0.7010924,0.6849989,-0.14537
678374,0.7041557,0.687565,-0.1467098
678377,0.7041557,0.687565,-0.1467098
678379,0.7058211,0.6895542,-0.1467098
678382,0.711894,0.6954879,-0.1480375
678384,0.711894,0.6954879,-0.1480375
678387,0.7132671,0.6968932,-0.1480375
678389,0.7173703,0.7008132,-0.1493534
678392,0.7173703,0.7008132,-0.1493534
678394,0.7181882,0.7016503,-0.1493534
678397,0.7181882,0.7016503,-0.1493534
678400,0.6991359,0.6852845,-0.1356209
678403,0.7027649,0.6892704,-0.1356209
678405,0.7027649,0.6892704,-0.1356209
678408,0.7063754,0.6937978,-0.1312212
678410,0.707759,0.6946434,-0.1297215
678413,0.707759,0.6946434,-0.1297215
678415,0.7127182,0.6996954,-0.1312212
678418,0.7127182,0.6996954,-0.1312212
678420,0.721179,0.708588,-0.1312212
678423,0.7249676,0.7129927,-0.1297215
678425,0.7249676,0.7129927,-0.1297215
678428,0.733287,0.721179,-0.1297215
678430,0.733287,0.721179,-0.1297215
678433,0.733287,0.721179,-0.1297215
678435,0.7423044,0.7308815,-0.1266688
678438,0.7423044,0.7308815,-0.1266688
678440,0.7491269,0.7386047,-0.1251145
678444,0.7543329,0.7444103,-0.1203313
678446,0.7543329,0.7444103,-0.1203313
678449,0.7702479,0.7615615,-0.1170339
678451,0.7702479,0.7615615,-0.1170339
678454,0.7755645,0.7671934,-0.1153499
678456,0.7855918,0.7775803,-0.1119058
678459,0.7932757,0.7858408,-0.1083524
678461,0.7991739,0.7925354,-0.1046783
678464,0.8120472,0.8060005,-0.1027921
678466,0.8120472,0.8060005,-0.1027921
678469,0.8308656,0.8259051,-0.09691329
678471,0.8308656,0.8259051,-0.09691329
678474,0.8469599,0.8425589,-0.09487279
678476,0.8706562,0.8670527,-0.08846933
678479,0.8706562,0.8670527,-0.08846933
678481,0.8818219,0.8791551,-0.08156469
678484,0.8910931,0.8888945,-0.07912937
678487,0.8910931,0.8888945,-0.07912937
678489,0.9140738,0.913217,-0.07401875
678492,0.9140738,0.913217,-0.07401875
678494,0.922597,0.9221727,-0.07132626
678497,0.9423231,0.9423231,-0.06852804
678499,0.9423231,0.9423231,-0.06852804
678502,0.9495632,0.9499753,-0.06852804
678504,0.9663135,0.9671232,-0.06852804
678507,0.9663135,0.9671232,-0.06852804
678509,0.972772,0.9737772,-0.06852804
678512,0.972772,0.9737772,-0.06852804
678514,0.98238,0.9835745,-0.07132626
678517,0.9861575,0.9873473,-0.07401875
678519,0.9861575,0.9873473,-0.07401875
678522,0.9942597,0.9950465,-0.07661668
678524,0.9974037,0.9977959,-0.07912937
678528,0.9974037,0.9977959,-0.07912937
678530,1.001906,1.002101,-0.08392937
678533,1.001906,1.002101,-0.08392937
678535,1.009106,1.008525,-0.09278741
678538,1.012204,1.011237,-0.09691329
678540,1.012204,1.011237,-0.09691329
678543,1.017411,1.014907,-0.1046783
678545,1.020867,1.017987,-0.1101434
678548,1.020867,1.017987,-0.1101434
678550,1.02641,1.022016,-0.1203313
678553,1.02641,1.022016,-0.1203313
678555,1.016448,1.011431,-0.1235407
678558,1.001124,0.9952432,-0.1251145
678560,1.001124,0.9952432,-0.1251145
678563,1.001515,0.993669,-0.1341704
678565,1.001906,0.991303,-0.1519511
678568,1.001906,0.991303,-0.1519511
678571,0.993866,0.9819816,-0.1557664
678574,0.993866,0.9819816,-0.1557664
678576,0.9873473,0.974179,-0.1607126
678579,0.9909081,0.9751828,-0.1701742
678581,0.9909081,0.9751828,-0.1701742
678584,0.9981881,0.9811842,-0.1758294
678586,0.9981881,0.9811842,-0.1758294
678589,0.9954398,0.9769872,-0.1813082
678591,0.9909081,0.970355,-0.1887116
678594,0.9909081,0.970355,-0.1887116
678596,0.9835745,0.9624583,-0.191797
678599,0.9729732,0.9501812,-0.1968319
678601,0.9729732,0.9501812,-0.1968319
678604,0.970355,0.9464671,-0.2007689
678606,0.970355,0.9464671,-0.2007689
678609,0.9663135,0.9406604,-0.2074791
678611,0.9646922,0.9383693,-0.2093567
678615,0.9646922,0.9383693,-0.2093567
678617,0.9729732,0.9450188,-0.2158
678619,0.9809847,0.9528548,-0.220287
678622,0.9809847,0.9528548,-0.220287
678624,0.9875455,0.9587917,-0.2238118
678627,0.9875455,0.9587917,-0.2238118
678629,1.004247,0.9745807,-0.2298502
678632,1.013363,0.9833755,-0.234068
678634,1.013363,0.9833755,-0.234068
678637,1.034954,1.004052,-0.2422834
678639,1.046798,1.0151,-0.2470816
678642,1.046798,1.0151,-0.2470816
678644,1.056288,1.024311,-0.25101
678647,1.056288,1.024311,-0.25101
678649,1.081732,1.049225,-0.2579304
678652,1.090919,1.058324,-0.2594432
678654,1.090919,1.058324,-0.2594432
678658,1.121696,1.087505,-0.2712421
678660,1.133151,1.098427,-0.2755364
678663,1.133151,1.098427,-0.2755364
678665,1.170861,1.132806,-0.2927522
678668,1.170861,1.132806,-0.2927522
678670,1.185642,1.146201,-0.3000144
678673,1.218204,1.176031,-0.3134116
678675,1.218204,1.176031,-0.3134116
678678,1.230829,1.187456,-0.3189811
678680,1.245527,1.20431,-0.3140353
678683,1.245527,1.20431,-0.3140353
678685,1.269029,1.23067,-0.3077414
678688,1.269029,1.23067,-0.3077414
678690,1.293163,1.254918,-0.3090104
678693,1.343629,1.305663,-0.311533
678695,1.343629,1.305663,-0.311533
678699,1.369308,1.331486,-0.3127867
678701,1.391564,1.353786,-0.3140353
678704,1.391564,1.353786,-0.3140353
678706,1.445368,1.409727,-0.3102743
678709,1.445368,1.409727,-0.3102743
678711,1.467404,1.432585,-0.3083766
678714,1.50259,1.469404,-0.3039024
678716,1.50259,1.469404,-0.3039024
678719,1.533401,1.501547,-0.3000144
678721,1.533401,1.501547,-0.3000144
678724,1.595446,1.567604,-0.2846186
678726,1.621482,1.594955,-0.2797648
678729,1.621482,1.594955,-0.2797648
678731,1.650905,1.627145,-0.2668786
678734,1.677714,1.655994,-0.2571706
678736,1.677714,1.655994,-0.2571706
678739,1.706971,1.688296,-0.2422834
678742,1.706971,1.688296,-0.2422834
678745,1.733704,1.717258,-0.2298502
678747,1.758918,1.744394,-0.2193969
678749,1.758918,1.744394,-0.2193969
678752,1.807211,1.797112,-0.191797
678754,1.833764,1.826171,-0.1724585
678757,1.833764,1.826171,-0.1724585
678759,1.858569,1.853085,-0.1570175
678762,1.858569,1.853085,-0.1570175
678764,1.88284,1.879094,-0.1384764
678767,1.926103,1.925086,-0.1119058
678769,1.926103,1.925086,-0.1119058
678772,1.945815,1.945916,-0.09891172
678774,1.964832,1.965928,-0.08392937
678777,1.964832,1.965928,-0.08392937
678779,2.001739,2.004376,-0.05595291
678782,2.001739,2.004376,-0.05595291
678785,2.019745,2.022843,-0.04423466
678788,2.036536,2.040184,-0.01978234
678790,2.036536,2.040184,-0.01978234
678793,2.053475,2.057379,-0.01978234
678795,2.085628,2.089753,0
678798,2.085628,2.089753,0
678800,2.101241,2.105521,0.01978234
678803,2.101241,2.105521,0.01978234
678805,2.120803,2.125136,0.03426402
678808,2.139363,2.143658,0.04423466
678810,2.139363,2.143658,0.04423466
678813,2.176098,2.180501,0.06255726
678815,2.194459,2.198735,0.07401875
678818,2.194459,2.198735,0.07401875
678820,2.21187,2.216025,0.08392937
678823,2.21187,2.216025,0.08392937
678825,2.226774,2.230726,0.09278741
678829,2.256027,2.259667,0.1119058
678831,2.256027,2.259667,0.1119058
678834,2.270124,2.273484,0.1203313
678836,2.283791,2.287045,0.1282043
678839,2.283791,2.287045,0.1282043
678841,2.295502,2.298484,0.1370561
678844,2.295502,2.298484,0.1370561
678846,2.319,2.32153,0.1532334
678849,2.329358,2.331625,0.1607126
678851,2.329358,2.331625,0.1607126
678854,2.339921,2.341928,0.1690205
678856,2.348354,2.347604,0.2027088
678859,2.348354,2.347604,0.2027088
678861,2.354098,2.352102,0.2167048
678864,2.354098,2.352102,0.2167048
678866,2.355428,2.351769,0.2332305
678870,2.358915,2.352102,0.261696
678872,2.358915,2.352102,0.261696
678875,2.360906,2.352601,0.2741124
678877,2.360906,2.352601,0.2741124
678879,2.364302,2.354513,0.2853053
678882,2.367611,2.356425,0.2967354
678884,2.367611,2.356425,0.2967354
678887,2.373968,2.360408,0.3165179
678889,2.377182,2.362563,0.3250574
678892,2.377182,2.362563,0.3250574
678894,2.38113,2.365544,0.332791
678897,2.38113,2.365544,0.332791
678899,2.381295,2.364799,0.339197
678902,2.37965,2.361735,0.3477423
678904,2.37965,2.361735,0.3477423
678907,2.378499,2.359994,0.3522151
678909,2.378828,2.359496,0.3560827
678913,2.378828,2.359496,0.3560827
678915,2.372979,2.353516,0.3571801
678918,2.372979,2.353516,0.3571801
678920,2.369595,2.349771,0.3588198
678923,2.363971,2.344016,0.358274
678925,2.363971,2.344016,0.358274
678928,2.360408,2.340339,0.3593647
678930,2.354597,2.334645,0.3560827
678933,2.35102,2.331206,0.354982
678935,2.349104,2.32919,0.3544303
678938,2.349104,2.32919,0.3544303
678940,2.34293,2.3233,0.3511023
678943,2.338833,2.319422,0.3499859
678945,2.338833,2.319422,0.3499859
678948,2.329526,2.31046,0.3454843
678950,2.322794,2.303843,0.3426407
678953,2.322794,2.303843,0.3426407
678956,2.31173,2.292943,0.3386196
678959,2.31173,2.292943,0.3386196
678961,2.303503,2.284991,0.3357179
678964,2.281647,2.263821,0.3268584
678966,2.281647,2.263821,0.3268584
678969,2.274688,2.257067,0.3250574
678971,2.264253,2.246986,0.3214254
678974,2.264253,2.246986,0.3214254
678976,2.25646,2.239395,0.3177519
678979,2.25646,2.239395,0.3177519
678981,2.244546,2.227741,0.3140353
678984,2.235459,2.218762,0.311533
678986,2.235459,2.218762,0.311533
678989,2.223696,2.20753,0.3071049
678991,2.20824,2.192406,0.301316
678994,2.20824,2.192406,0.301316
678996,2.200604,2.185253,0.2980514
679000,2.200604,2.185253,0.2980514
679002,2.195172,2.179873,0.2960753
679005,2.18928,2.174389,0.2927522
679007,2.18928,2.174389,0.2927522
679009,2.184984,2.170335,0.2900664
679012,2.184984,2.170335,0.2900664
679014,2.181847,2.167357,0.2887141
679017,2.176997,2.162927,0.2853053
679019,2.176997,2.162927,0.2853053
679022,2.169252,2.155767,0.2790645
679024,2.166273,2.153042,0.276953
679027,2.166273,2.153042,0.276953
679029,2.16347,2.150859,0.2719625
679032,2.16347,2.150859,0.2719625
679034,2.16012,2.14831,0.2661444
679037,2.157763,2.146213,0.2631872
679040,2.157763,2.146213,0.2631872
679043,2.154859,2.143841,0.2586879
679045,2.151223,2.140552,0.2548778
679048,2.151223,2.140552,0.2548778
679050,2.148401,2.138082,0.2525642
679053,2.148401,2.138082,0.2525642
679055,2.14174,2.131848,0.2470816
679058,2.13799,2.128633,0.2438933
679060,2.13799,2.128633,0.2438933
679063,2.130563,2.121818,0.2382111
679065,2.126977,2.118495,0.2349025
679068,2.126977,2.118495,0.2349025
679070,2.117848,2.109885,0.2281412
679073,2.117848,2.109885,0.2281412
679075,2.112759,2.105149,0.2255535
679078,2.108958,2.101427,0.2255535
679080,2.108958,2.101427,0.2255535
679084,2.088535,2.081401,0.220287
679086,2.075092,2.068195,0.2167048
679089,2.075092,2.068195,0.2167048
679091,2.064406,2.057664,0.2139789
679094,2.064406,2.057664,0.2139789
679096,2.044113,2.037688,0.20842
679099,2.034901,2.02864,0.2055842
679101,2.034901,2.02864,0.2055842
679104,2.021295,2.01538,0.2007689
679106,2.010519,2.004865,0.1968319
679109,2.010519,2.004865,0.1968319
679111,1.991053,1.986132,0.1876719
679114,1.991053,1.986132,0.1876719
679116,1.98268,1.977937,0.1845175
679119,1.97566,1.971197,0.1802258
679121,1.97566,1.971197,0.1802258
679124,1.958247,1.954446,0.1713202
679127,1.951941,1.948428,0.166689
679130,1.951941,1.948428,0.166689
679132,1.938964,1.936034,0.1582588
679135,1.938964,1.936034,0.1582588
679137,1.934113,1.93148,0.1545051
679139,1.921423,1.919283,0.1467098
679142,1.921423,1.919283,0.1467098
679144,1.916834,1.914791,0.1440177
679147,1.916834,1.914791,0.1440177
679149,1.905365,1.903823,0.1341704
679152,1.901149,1.900016,0.1312212
679154,1.901149,1.900016,0.1312212
679157,1.89651,1.895582,0.1266688
679159,1.889895,1.889066,0.1219466
679162,1.889895,1.889066,0.1219466
679164,1.886578,1.886059,0.1186941
679168,1.886578,1.886059,0.1186941
679170,1.881696,1.88128,0.1136409
679173,1.879719,1.879615,0.1101434
679175,1.879719,1.879615,0.1101434
679178,1.878261,1.877948,0.1083524
679180,1.874088,1.874088,0.1046783
679183,1.874088,1.874088,0.1046783
679185,1.872521,1.872417,0.1046783
679188,1.872521,1.872417,0.1046783
679190,1.872103,1.871894,0.1046783
679193,1.871894,1.871685,0.1046783
679195,1.871894,1.871685,0.1046783
679198,1.868755,1.868441,0.1027921
679200,1.867603,1.867498,0.1046783
679203,1.867603,1.867498,0.1046783
679205,1.86141,1.860989,0.1065312
679208,1.86141,1.860989,0.1065312
679211,1.859095,1.858674,0.1083524
679214,1.856462,1.855829,0.1136409
679216,1.856462,1.855829,0.1136409
679219,1.852557,1.851501,0.1186941
679221,1.847056,1.845784,0.1235407
679224,1.847056,1.845784,0.1235407
679226,1.839092,1.837176,0.1297215
679229,1.839092,1.837176,0.1297215
679231,1.853719,1.851289,0.1412742
679234,1.865925,1.862986,0.1506579
679236,1.865925,1.862986,0.1506579
679239,1.905159,1.90084,0.1701742
679241,1.920506,1.915506,0.1791368
679244,1.920506,1.915506,0.1791368
679246,1.940276,1.934518,0.1887116
679249,1.940276,1.934518,0.1887116
679251,1.971693,1.964633,0.2046302
679255,1.986822,1.979025,0.2139789
679257,1.986822,1.979025,0.2139789
679260,2.011589,2.002423,0.2281412
679262,2.023037,2.013145,0.2349025
679265,2.023037,2.013145,0.2349025
679267,2.033073,2.02265,0.2414744
679269,2.033073,2.02265,0.2414744
679272,2.053475,2.041814,0.2533378
679274,2.061845,2.04985,0.2571706
679277,2.061845,2.04985,0.2571706
679279,2.076223,2.063363,0.2654082
679282,2.076223,2.063363,0.2654082
679284,2.082435,2.069141,0.268341
679287,2.087317,2.073865,0.2705197
679289,2.087317,2.073865,0.2705197
679292,2.096859,2.082905,0.2755364
679294,2.100961,2.086754,0.276953
679298,2.100961,2.086754,0.276953
679300,2.108493,2.093963,0.2797648
679303,2.108493,2.093963,0.2797648
679305,2.111554,2.097139,0.2804634
679308,2.114703,2.100402,0.2797648
679310,2.114703,2.100402,0.2797648
679313,2.119695,2.105521,0.2783625
679315,2.121633,2.107565,0.276953
679318,2.121633,2.107565,0.276953
679320,2.123016,2.109421,0.2741124
679323,2.123016,2.109421,0.2741124
679325,2.123016,2.109607,0.2712421
679328,2.120341,2.107658,0.2661444
679330,2.120341,2.107658,0.2661444
679333,2.118772,2.106171,0.2639296
679335,2.117755,2.105428,0.2624426
679339,2.117755,2.105428,0.2624426
679341,2.106729,2.095365,0.2533378
679344,2.106729,2.095365,0.2533378
679346,2.103196,2.092093,0.25101
679349,2.088816,2.078767,0.2422834
679351,2.088816,2.078767,0.2422834
679354,2.08422,2.074526,0.2390311
679356,2.06933,2.060516,0.2289973
679359,2.06933,2.060516,0.2289973
679361,2.05852,2.050327,0.2229358
679364,2.05852,2.050327,0.2229358
679366,2.050232,2.042389,0.2176059
679369,2.035478,2.028737,0.2074791
679371,2.035478,2.028737,0.2074791
679374,2.029122,2.022747,0.2017412
679376,2.013437,2.007889,0.1907741
679379,2.013437,2.007889,0.1907741
679382,2.013437,2.007889,0.1907741
679385,2.013437,2.007889,0.1907741
679387,2.005353,2.000174,0.1866263
679390,2.005353,2.000174,0.1866263
679392,2.005353,2.000174,0.1866263
679395,1.99007,1.985442,0.1813082
679397,1.951741,1.947323,0.1769387
679400,1.951741,1.947323,0.1769387
679402,1.920098,1.916017,0.1735894
679404,1.920098,1.916017,0.1735894
679407,1.846844,1.843025,0.1701742
679409,1.818976,1.815315,0.1690205
679412,1.818976,1.815315,0.1690205
679414,1.761698,1.758362,0.166689
679417,1.761698,1.758362,0.166689
679419,1.739339,1.736411,0.165511
679422,1.695352,1.692579,0.165511
679425,1.695352,1.692579,0.165511
679428,1.677131,1.674445,0.1643245
679430,1.644967,1.642229,0.166689
679433,1.644967,1.642229,0.166689
679435,1.631589,1.628828,0.166689
679438,1.631589,1.628828,0.166689
679440,1.61955,1.616647,0.1690205
679443,1.598509,1.595323,0.1724585
679445,1.598509,1.595323,0.1724585
679448,1.59213,1.588562,0.1758294
679450,1.579791,1.575946,0.1802258
679453,1.579791,1.575946,0.1802258
679455,1.578428,1.574082,0.1845175
679458,1.578428,1.574082,0.1845175
679460,1.573834,1.568728,0.1887116
679463,1.575201,1.569601,0.1938267
679465,1.575201,1.569601,0.1938267
679469,1.574455,1.568104,0.1988102
679471,1.583009,1.57607,0.2027088
679474,1.583009,1.57607,0.2027088
679476,1.592868,1.584985,0.20842
679479,1.592868,1.584985,0.20842
679481,1.604619,1.596426,0.2112177
679484,1.613133,1.604619,0.2139789
679486,1.613133,1.604619,0.2139789
679489,1.650431,1.641275,0.2193969
679491,1.663188,1.653629,0.2220564
679494,1.663188,1.653629,0.2220564
679496,1.686208,1.676314,0.2246844
679499,1.686208,1.676314,0.2246844
679501,1.719422,1.709148,0.2281412
679504,1.737199,1.726691,0.2298502
679506,1.737199,1.726691,0.2298502
679510,1.751336,1.740913,0.2306999
679512,1.774758,1.764362,0.2298502
679515,1.774758,1.764362,0.2298502
679517,1.784325,1.774096,0.2289973
679520,1.784325,1.774096,0.2289973
679522,1.804393,1.794824,0.2229358
679525,1.811645,1.802331,0.2220564
679527,1.811645,1.802331,0.2220564
679530,1.82349,1.814883,0.2148914
679532,1.82842,1.820267,0.2102893
679534,1.82842,1.820267,0.2102893
679537,1.831521,1.823919,0.2055842
679539,1.831521,1.823919,0.2055842
679542,1.836004,1.829276,0.1968319
679544,1.837495,1.831414,0.1887116
679547,1.837495,1.831414,0.1887116
679549,1.839731,1.834617,0.1791368
679553,1.839731,1.834617,0.1791368
679555,1.839518,1.835151,0.1701742
679558,1.839518,1.835897,0.1594904
679560,1.839518,1.835897,0.1594904
679563,1.837602,1.83451,0.1506579
679565,1.835044,1.832589,0.1426525
679568,1.835044,1.832589,0.1426525
679570,1.836217,1.834297,0.132704
679573,1.836217,1.834297,0.132704
679575,1.838028,1.836856,0.1219466
679578,1.841963,1.841113,0.1136409
679580,1.841963,1.841113,0.1136409
679583,1.847585,1.847268,0.1027921
679585,1.853297,1.853402,0.09691329
679588,1.853297,1.853402,0.09691329
679590,1.861725,1.862041,0.08392937
679593,1.861725,1.862041,0.08392937
679596,1.873253,1.874088,0.07912937
679599,1.882632,1.88336,0.07401875
679601,1.882632,1.88336,0.07401875
679604,1.903206,1.904337,0.05934703
679606,1.913871,1.915097,0.05233916
679609,1.913871,1.915097,0.05233916
679611,1.932696,1.934113,0.03956468
679614,1.932696,1.934113,0.03956468
679616,1.940881,1.942392,0.03426402
679619,1.947725,1.949232,0.02797646
679621,1.947725,1.949232,0.02797646
679624,1.958048,1.959646,0.01978234
679626,1.961942,1.963537,0.01978234
679629,1.961942,1.963537,0.01978234
679631,1.968415,1.970005,0
679634,1.968415,1.970005,0
679636,1.970998,1.972487,0.01978234
679640,1.976749,1.978233,0
679642,1.976749,1.978233,0
679645,1.986034,1.987413,0
679647,1.989676,1.991053,0
679650,1.989676,1.991053,0
679652,1.995373,1.996746,0
679655,1.995373,1.996746,0
679657,1.99753,1.999097,0
679660,1.998803,2.000369,0
679662,1.998803,2.000369,0
679664,1.998314,1.99988,0
679667,1.991348,1.99292,0.01978234
679669,1.991348,1.99292,0.01978234
679672,1.986132,1.987708,0.01978234
679674,1.986132,1.987708,0.01978234
679677,1.981989,1.983371,0.03426402
679680,1.973578,1.974867,0.04423466
679683,1.973578,1.974867,0.04423466
679685,1.9707,1.971892,0.05233916
679688,1.9707,1.971892,0.05233916
679690,1.969011,1.969707,0.07661668
679693,1.968514,1.969011,0.08392937
679695,1.968514,1.969011,0.08392937
679698,1.969111,1.968912,0.1027921
679700,1.969409,1.969011,0.1119058
679703,1.969409,1.969011,0.1119058
679705,1.974966,1.973677,0.1235407
679708,1.974966,1.973677,0.1235407
679710,1.983272,1.980903,0.1440177
679713,1.991053,1.987807,0.1582588
679715,1.991053,1.987807,0.1582588
679718,1.99753,1.993411,0.1701742
679720,2.02642,2.019939,0.2007689
679724,2.02642,2.019939,0.2007689
679726,2.047079,2.038745,0.2220564
679729,2.047079,2.038745,0.2220564
679731,2.06156,2.05214,0.2349025
679734,2.074242,2.063553,0.2462884
679736,2.074242,2.063553,0.2462884
679739,2.102079,2.088441,0.2762456
679741,2.113222,2.098351,0.2880355
679744,2.113222,2.098351,0.2880355
679746,2.14238,2.124583,0.3146578
679749,2.14238,2.124583,0.3146578
679751,2.154042,2.135059,0.3256589
679754,2.169884,2.148036,0.3488659
679756,2.169884,2.148036,0.3488659
679759,2.176728,2.153769,0.3588198
679761,2.186148,2.16166,0.3706227
679764,2.186148,2.16166,0.3706227
679767,2.202293,2.175199,0.3901695
679770,2.202293,2.175199,0.3901695
679772,2.20948,2.18095,0.4010509
679775,2.222287,2.191424,0.4182466
679777,2.222287,2.191424,0.4182466
679780,2.228004,2.195974,0.4265846
679782,2.238521,2.204514,0.4405747
679785,2.238521,2.204514,0.4405747
679787,2.242714,2.208062,0.4463111
679790,2.242714,2.208062,0.4463111
679792,2.250815,2.214877,0.4558544
679794,2.255072,2.219114,0.4588492
679797,2.255072,2.219114,0.4588492
679799,2.259321,2.223079,0.4618246
679802,2.268485,2.232305,0.464781
679804,2.268485,2.232305,0.464781
679808,2.273053,2.236947,0.4660423
679810,2.273053,2.236947,0.4660423
679813,2.280961,2.245853,0.4643598
679815,2.284305,2.249772,0.4622481
679818,2.284305,2.249772,0.4622481
679820,2.293284,2.26062,0.4558544
679823,2.293284,2.26062,0.4558544
679825,2.298569,2.266932,0.4524074
679828,2.303248,2.27245,0.4498048
679830,2.303248,2.27245,0.4498048
679833,2.315706,2.287644,0.4383485
679835,2.320771,2.29354,0.4352126
679838,2.320771,2.29354,0.4352126
679840,2.32919,2.304947,0.4201138
679843,2.32919,2.304947,0.4201138
679845,2.331206,2.309189,0.4083038
679848,2.335316,2.316297,0.3921704
679851,2.335316,2.316297,0.3921704
679854,2.340005,2.322963,0.3815487
679856,2.34435,2.328686,0.3727285
679859,2.34435,2.328686,0.3727285
679861,2.406803,2.396126,0.3443497
679864,2.406803,2.396126,0.3443497
679866,2.456148,2.448326,0.3262592
679869,2.52251,2.519016,0.2967354
679871,2.52251,2.519016,0.2967354
679874,2.544221,2.542451,0.2839303
679876,2.563459,2.562924,0.2733977
679879,2.563459,2.562924,0.2733977
679881,2.594878,2.597366,0.25101
679884,2.594878,2.597366,0.25101
679886,2.608795,2.612319,0.2414744
679889,2.705084,2.71231,0.2102893
679891,2.705084,2.71231,0.2102893
679895,2.744166,2.752571,0.1988102
679897,2.853894,2.865189,0.166689
679900,2.853894,2.865189,0.166689
679902,2.898878,2.911142,0.1545051
679905,2.898878,2.911142,0.1545051
679907,2.899688,2.912688,0.1519511
679910,2.908451,2.922551,0.1467098
679912,2.908451,2.922551,0.1467098
679915,2.915845,2.930912,0.1467098
679917,2.933716,2.950217,0.14537
679920,2.933716,2.950217,0.14537
679922,2.9585,2.976575,0.1440177
679924,2.9585,2.976575,0.1440177
679927,3.002244,3.022909,0.1370561
679929,3.031638,3.054283,0.1341704
679932,3.031638,3.054283,0.1341704
679934,3.084452,3.110554,0.1266688
679938,3.183338,3.211259,0.1101434
679940,3.183338,3.211259,0.1101434
679943,3.384198,3.414951,0.07661668
679945,3.384198,3.414951,0.07661668
679948,3.484195,3.515913,0.05934703
679950,3.571496,3.604022,0.04423466
679953,3.571496,3.604022,0.04423466
679955,3.689182,3.72431,0.02797646
679958,3.689182,3.72431,0.02797646
679960,3.74073,3.776987,0.01978234
679963,3.808121,3.848376,0
679965,3.808121,3.848376,0
679968,3.840073,3.882016,0
679970,3.884134,3.928,0
679973,3.884134,3.928,0
679975,3.966547,4.01376,0
679979,3.966547,4.01376,0
679981,4.076214,4.124025,-0.01978234
679984,4.258506,4.307571,-0.04845664
679986,4.258506,4.307571,-0.04845664
679989,4.342982,4.392845,-0.06255726
679991,4.487685,4.538939,-0.08156469
679994,4.487685,4.538939,-0.08156469
679996,4.561925,4.614564,-0.08622923
679999,4.561925,4.614564,-0.08622923
680001,4.697403,4.752337,-0.1008706
680004,4.78868,4.844522,-0.1046783
680006,4.78868,4.844522,-0.1046783
680009,4.945776,5.003354,-0.1119058
680011,5.06531,5.123079,-0.1101434
680014,5.06531,5.123079,-0.1101434
680016,5.172104,5.230121,-0.1083524
680019,5.172104,5.230121,-0.1083524
680022,5.357562,5.415623,-0.1027921
680025,5.439992,5.497934,-0.09891172
680027,5.439992,5.497934,-0.09891172
680030,5.612936,5.670049,-0.09691329
680032,5.700867,5.757383,-0.09691329
680035,5.700867,5.757383,-0.09691329
680037,5.893685,5.948079,-0.1027921
680040,5.893685,5.948079,-0.1027921
680042,5.995576,6.048734,-0.1065312
680045,6.171935,6.223528,-0.1170339
680047,6.171935,6.223528,-0.1170339
680050,6.467841,6.517313,-0.1356209
680052,6.614705,6.662148,-0.1312212
680054,6.614705,6.662148,-0.1312212
680057,6.867813,6.912393,-0.1282043
680059,6.867813,6.912393,-0.1282043
680062,7.042666,7.084712,-0.1341704
680065,7.347748,7.386233,-0.14537
680068,7.347748,7.386233,-0.14537
680070,7.50454,7.540956,-0.1426525
680073,7.649347,7.684084,-0.1426525
680075,7.649347,7.684084,-0.1426525
680078,7.955198,7.986303,-0.1370561
680080,7.955198,7.986303,-0.1370561
680083,8.114402,8.143674,-0.1341704
680085,8.437872,8.464362,-0.1219466
680088,8.437872,8.464362,-0.1219466
680090,8.601196,8.626597,-0.1170339
680093,8.754613,8.779103,-0.1119058
680095,8.754613,8.779103,-0.1119058
680098,9.16684,9.189258,-0.1153499
680100,9.16684,9.189258,-0.1153499
680103,9.345631,9.367288,-0.1153499
680105,9.767647,9.786973,-0.1170339
680109,9.767647,9.786973,-0.1170339
680111,9.952638,9.971095,-0.1186941
680114,9.952638,9.971095,-0.1186941
680116,10.12158,10.13935,-0.1119058
680119,10.4788,10.49559,-0.1065312
680121,10.4788,10.49559,-0.1065312
680124,10.66103,10.67746,-0.1046783
680126,11.01773,11.03375,-0.1136409
680129,11.01773,11.03375,-0.1136409
680131,11.19707,11.21298,-0.1186941
680134,11.19707,11.21298,-0.1186941
680136,11.36652,11.38232,-0.1251145
680139,11.64967,11.66533,-0.1412742
680141,11.64967,11.66533,-0.1412742
680144,11.78403,11.79963,-0.1467098
680146,11.9878,12.00285,-0.1557664
680150,11.9878,12.00285,-0.1557664
680152,12.09721,12.11198,-0.1607126
680155,12.09721,12.11198,-0.1607126
680157,12.16711,12.18159,-0.1582588
680160,12.33512,12.34905,-0.1582588
680162,12.33512,12.34905,-0.1582588
680165,12.38257,12.39648,-0.1532334
680167,12.51079,12.52453,-0.1493534
680170,12.51079,12.52453,-0.1493534
680172,12.51553,12.52942,-0.1370561
680175,12.51553,12.52942,-0.1370561
680177,12.55212,12.56637,-0.1251145
680180,12.58327,12.59769,-0.1219466
680182,12.58327,12.59769,-0.1219466
680184,12.62848,12.64305,-0.1219466
680187,12.66232,12.67699,-0.1312212
680189,12.66232,12.67699,-0.1312212
680193,12.69731,12.71201,-0.1341704
680195,12.69731,12.71201,-0.1341704
680198,12.69698,12.71175,-0.1426525
680200,12.72331,12.73803,-0.1467098
680203,12.72331,12.73803,-0.1467098
680205,12.70933,12.72422,-0.14537
680208,12.7263,12.74136,-0.14537
680210,12.7263,12.74136,-0.14537
680213,12.71501,12.73056,-0.1384764
680215,12.71501,12.73056,-0.1384764
680218,12.73389,12.75014,-0.1251145
680220,12.71074,12.72731,-0.1136409
680223,12.71074,12.72731,-0.1136409
680225,12.7101,12.72714,-0.09278741
680228,12.69979,12.71706,-0.08392937
680230,12.69979,12.71706,-0.08392937
680233,12.71498,12.7325,-0.0656106
680236,12.71498,12.7325,-0.0656106
680239,12.71543,12.73286,-0.05595291
680241,12.72625,12.74357,-0.04845664
680244,12.74441,12.76164,-0.03956468
680246,12.73804,12.75516,-0.02797646
680249,12.73804,12.75516,-0.02797646
680251,12.74305,12.76005,-0.02797646
680254,12.7201,12.73682,-0.01978234
680256,12.7201,12.73682,-0.01978234
680259,12.69712,12.71369,0
680261,12.66771,12.68403,0.01978234
680264,12.66771,12.68403,0.01978234
680266,12.66025,12.67649,0
680269,12.66025,12.67649,0
680271,12.64033,12.65643,0
680274,12.62984,12.64587,0
680276,12.62984,12.64587,0
680280,12.62833,12.64428,0
680282,12.59645,12.6122,0
680285,12.59645,12.6122,0
680287,12.56338,12.57898,-0.02797646
680290,12.56338,12.57898,-0.02797646
680292,12.52982,12.54519,-0.03956468
680295,12.49252,12.50771,-0.05595291
680297,12.49252,12.50771,-0.05595291
680300,12.49252,12.50771,-0.05595291
680302,12.49252,12.50771,-0.05595291
680305,12.49252,12.50771,-0.05595291
680307,12.45832,12.47329,-0.06852804
680310,12.45832,12.47329,-0.06852804
680312,12.43546,12.45025,-0.07912937
680314,12.38228,12.39675,-0.09891172
680317,12.38228,12.39675,-0.09891172
680320,12.35826,12.3726,-0.1065312
680323,12.33189,12.346,-0.1186941
680325,12.33189,12.346,-0.1186941
680328,12.32647,12.34049,-0.1219466
680330,12.32647,12.34049,-0.1219466
680333,12.33905,12.35349,-0.1251145
680335,12.31269,12.32733,-0.1251145
680338,12.31269,12.32733,-0.1251145
680340,12.28012,12.29502,-0.1251145
680343,12.27167,12.28666,-0.1266688
680345,12.27167,12.28666,-0.1266688
680348,12.26397,12.27935,-0.1235407
680350,12.26397,12.27935,-0.1235407
680353,12.2726,12.28877,-0.1136409
680355,12.28533,12.30185,-0.1101434
680358,12.28533,12.30185,-0.1101434
680360,12.31443,12.3317,-0.1008706
680364,12.3299,12.34752,-0.09487279
680366,12.3299,12.34752,-0.09487279
680369,12.38478,12.40324,-0.08392937
680371,12.38478,12.40324,-0.08392937
680374,12.4207,12.43965,-0.08392937
680376,12.47963,12.49951,-0.07661668
680379,12.47963,12.49951,-0.07661668
680381,12.50439,12.5247,-0.07401875
680384,12.50439,12.5247,-0.07401875
680386,12.52754,12.54824,-0.06852804
680389,12.57256,12.59429,-0.05595291
680391,12.57256,12.59429,-0.05595291
680394,12.59286,12.61499,-0.05595291
680396,12.56511,12.58793,-0.01978234
680399,12.56511,12.58793,-0.01978234
680401,12.55829,12.58136,0
680404,12.55829,12.58136,0
680407,12.52942,12.55254,0.02797646
680410,12.52149,12.54462,0.04845664
680412,12.52149,12.54462,0.04845664
680415,12.51659,12.53937,0.0656106
680417,12.51392,12.53621,0.09891172
680420,12.51392,12.53621,0.09891172
680422,12.54078,12.5626,0.1101434
680425,12.54078,12.5626,0.1101434
680427,12.56478,12.58625,0.1186941
680430,12.61215,12.63273,0.1341704
680432,12.61215,12.63273,0.1341704
680435,12.63267,12.65294,0.1412742
680437,12.66799,12.68756,0.1594904
680440,12.66799,12.68756,0.1594904
680442,12.68392,12.70323,0.1690205
680444,12.68392,12.70323,0.1690205
680448,12.70278,12.72199,0.1938267
680450,12.71274,12.73186,0.2046302
680453,12.71274,12.73186,0.2046302
680455,12.69069,12.70948,0.23239
680458,12.68489,12.70351,0.2438933
680460,12.68489,12.70351,0.2438933
680463,12.66149,12.67985,0.2579304
680465,12.66149,12.67985,0.2579304
680468,12.63057,12.64843,0.2811602
680470,12.57076,12.58794,0.3000144
680473,12.57076,12.58794,0.3000144
680475,12.48309,12.49918,0.3316129
680478,12.4578,12.47343,0.3420692
680480,12.4578,12.47343,0.3420692
680483,12.41984,12.43473,0.3609945
680485,12.41984,12.43473,0.3609945
680488,12.4122,12.42662,0.3695653
680491,12.40033,12.41389,0.3861367
680494,12.40033,12.41389,0.3861367
680496,12.40068,12.41384,0.3946573
680499,12.40039,12.41289,0.4102162
680501,12.40039,12.41289,0.4102162
680504,12.41257,12.42494,0.4191812
680506,12.41257,12.42494,0.4191812
680509,12.42235,12.43459,0.427501
680511,12.45164,12.46385,0.4419051
680514,12.45164,12.46385,0.4419051
680516,12.46915,12.48146,0.4480613
680519,12.46915,12.48146,0.4480613
680521,12.5131,12.52574,0.4626713
680524,12.53765,12.55049,0.4710537
680526,12.53765,12.55049,0.4710537
680529,12.58487,12.59819,0.4901886
680531,12.60769,12.62126,0.5008504
680535,12.60769,12.62126,0.5008504
680537,12.61346,12.6269,0.533392
680540,12.61346,12.6269,0.533392
680542,12.60298,12.6161,0.5528469
680545,12.59315,12.60598,0.5784457
680547,12.59315,12.60598,0.5784457
680550,12.57994,12.59211,0.6211812
680552,12.58713,12.59911,0.6467983
680555,12.58713,12.59911,0.6467983
680557,12.59947,12.61094,0.690405
680560,12.59947,12.61094,0.690405
680562,12.62237,12.63381,0.7165515
680565,12.65864,12.66984,0.7610474
680567,12.65864,12.66984,0.7610474
680570,12.72731,12.73904,0.7773286
680572,12.78566,12.79775,0.7932757
680574,12.78566,12.79775,0.7932757
680578,12.89576,12.90899,0.8211529
680580,12.89576,12.90899,0.8211529
680583,12.94723,12.96115,0.8334522
680585,12.99185,13.00631,0.8455727
680588,12.99185,13.00631,0.8455727
680590,13.06107,13.07708,0.8724523
680593,13.11454,13.13219,0.8959111
680595,13.11454,13.13219,0.8959111
680598,13.13754,13.1561,0.9065502
680600,13.13754,13.1561,0.9065502
680603,13.17739,13.19744,0.9293592
680605,13.19522,13.21584,0.9410763
680608,13.19522,13.21584,0.9410763
680610,13.21224,13.23335,0.9526493
680613,13.23948,13.26074,0.9815831
680615,13.23948,13.26074,0.9815831
680619,13.25335,13.27468,0.9950465
680621,13.25335,13.27468,0.9950465
680624,13.2671,13.28794,1.012784
680626,13.29586,13.31597,1.045676
680628,13.29586,13.31597,1.045676
680631,13.30428,13.32348,1.065694
680633,13.30428,13.32348,1.065694
680636,13.32348,13.34127,1.100562
680638,13.32286,13.33979,1.118026
680640,13.32286,13.33979,1.118026
680643,13.32846,13.34399,1.14995
680645,13.32846,13.34399,1.14995
680648,13.32862,13.34334,1.164997
680650,13.33153,13.34482,1.192061
680652,13.33153,13.34482,1.192061
680655,13.33407,13.34673,1.20431
680657,13.33407,13.34673,1.20431
680659,13.3429,13.35451,1.227964
680663,13.3429,13.35451,1.227964
680665,13.34531,13.35653,1.235906
680667,13.34942,13.36027,1.244741
680670,13.34942,13.36027,1.244741
680672,13.35264,13.36314,1.253358
680674,13.35264,13.36314,1.253358
680677,13.35616,13.36651,1.259121
680679,13.36905,13.37879,1.267023
680681,13.36905,13.37879,1.267023
680684,13.37569,13.38511,1.272263
680686,13.37569,13.38511,1.272263
680688,13.38546,13.39427,1.274568
680691,13.38546,13.39427,1.274568
680693,13.39105,13.39951,1.277941
680695,13.39092,13.39906,1.275182
680698,13.39092,13.39906,1.275182
680700,13.39437,13.40187,1.275949
680702,13.39437,13.40187,1.275949
680706,13.39666,13.40362,1.2698
680708,13.40337,13.40941,1.264394
680711,13.40337,13.40941,1.264394
680713,13.40533,13.41083,1.255697
680715,13.40533,13.41083,1.255697
680718,13.40807,13.41306,1.249762
680720,13.41666,13.42028,1.229874
680723,13.41666,13.42028,1.229874
680725,13.42123,13.42429,1.223813
680727,13.42123,13.42429,1.223813
680730,13.42482,13.42716,1.205934
680732,13.42507,13.42715,1.195504
680735,13.42507,13.42715,1.195504
680737,13.42223,13.42468,1.159778
680740,13.42223,13.42468,1.159778
680742,13.42248,13.425,1.147395
680744,13.41987,13.42312,1.125179
680748,13.41987,13.42312,1.125179
680750,13.41823,13.42245,1.092353
680753,13.41823,13.42245,1.092353
680755,13.41495,13.42019,1.06936
680757,13.41212,13.41878,1.034765
680760,13.41212,13.41878,1.034765
680762,13.40234,13.4104,1.007748
680765,13.40234,13.4104,1.007748
680767,13.38934,13.39944,0.9663135
680770,13.39452,13.40579,0.9429458
680772,13.39452,13.40579,0.9429458
680775,13.39947,13.41168,0.9228091
680777,13.39689,13.41075,0.8800449
680780,13.39689,13.41075,0.8800449
680782,13.39148,13.40603,0.858434
680785,13.39148,13.40603,0.858434
680787,13.37865,13.39458,0.8130105
680791,13.37175,13.38834,0.7900625
680793,13.37175,13.38834,0.7900625
680796,13.3514,13.36957,0.7404569
680798,13.33928,13.35826,0.7146374
680801,13.33928,13.35826,0.7146374
680803,13.30836,13.32892,0.6608641
680806,13.30836,13.32892,0.6608641
680808,13.29102,13.31232,0.6333472
680811,13.27671,13.29856,0.6090934
680813,13.27671,13.29856,0.6090934
680815,13.20448,13.22727,0.5500081
680818,13.17709,13.20019,0.5256317
680820,13.17709,13.20019,0.5256317
680823,13.09464,13.11858,0.468137
680825,13.09464,13.11858,0.468137
680828,13.06255,13.0868,0.4432315
680830,12.99255,13.0174,0.3846134
680834,12.99255,13.0174,0.3846134
680836,12.9766,13.00169,0.3566318
680839,12.96152,12.98677,0.3310224
680841,12.96152,12.98677,0.3310224
680844,12.94173,12.96692,0.2783625
680846,12.94173,12.96692,0.2783625
680849,12.93549,12.96055,0.2525642
680851,12.91941,12.94365,0.1968319
680854,12.91941,12.94365,0.1968319
680856,12.91042,12.93408,0.1690205
680859,12.90236,12.9245,0.1101434
680861,12.90236,12.9245,0.1101434
680864,12.90135,12.92255,0.08156469
680866,12.90135,12.92255,0.08156469
680869,12.89919,12.91952,0.05595291
680871,12.85467,12.87264,0
680875,12.85467,12.87264,0
680877,12.83629,12.85323,-0.01978234
680880,12.78327,12.79752,-0.07912937
680882,12.78327,12.79752,-0.07912937
680885,12.76092,12.77398,-0.1027921
680887,12.76092,12.77398,-0.1027921
680890,12.70517,12.71551,-0.1607126
680892,12.68165,12.69077,-0.1876719
680895,12.68165,12.69077,-0.1876719
680897,12.62062,12.62723,-0.2414744
680900,12.62062,12.62723,-0.2414744
680902,12.59503,12.60046,-0.2661444
680905,12.56862,12.57274,-0.2927522
680907,12.56862,12.57274,-0.2927522
680910,12.52259,12.52412,-0.3426407
680912,12.4874,12.48731,-0.373777
680915,12.4874,12.48731,-0.373777
680918,12.39903,12.39514,-0.4427898
680921,12.39903,12.39514,-0.4427898
680923,12.34958,12.3436,-0.4796977
680926,12.26813,12.25824,-0.5446455
680928,12.26813,12.25824,-0.5446455
680931,12.19438,12.18151,-0.5934729
680933,12.12953,12.1137,-0.6385778
680936,12.12953,12.1137,-0.6385778
680938,11.98109,11.9585,-0.733287
680941,11.98109,11.9585,-0.733287
680943,11.92076,11.89497,-0.774302
680945,11.76268,11.72971,-0.8602557
680948,11.76268,11.72971,-0.8602557
680950,11.69706,11.66072,-0.8991814
680953,11.52198,11.4778,-0.9839723
680955,11.52198,11.4778,-0.9839723
680958,11.44813,11.40019,-1.023164
680961,11.44813,11.40019,-1.023164
680964,11.38038,11.32862,-1.061463
680966,11.25057,11.18884,-1.160115
680969,11.25057,11.18884,-1.160115
680971,11.12504,11.0582,-1.207069
680974,11.01521,10.94345,-1.250857
680976,11.01521,10.94345,-1.250857
680979,10.7937,10.71133,-1.340421
680981,10.7937,10.71133,-1.340421
680984,10.68425,10.59626,-1.385221
680986,10.46531,10.3653,-1.479755
680989,10.46531,10.3653,-1.479755
680991,10.3586,10.25239,-1.527391
680994,10.26255,10.15028,-1.572092
680996,10.26255,10.15028,-1.572092
680999,9.974467,9.84846,-1.668591
681001,9.974467,9.84846,-1.668591
681005,9.826272,9.691808,-1.727031
681007,9.576062,9.425481,-1.831628
681010,9.576062,9.425481,-1.831628
681012,9.40241,9.242843,-1.884398
681015,9.114881,8.938263,-1.979223
681017,9.114881,8.938263,-1.979223
681020,8.9447,8.759055,-2.025744
681022,8.9447,8.759055,-2.025744
681025,8.651016,8.44713,-2.115629
681027,8.479615,8.261965,-2.172588
681030,8.479615,8.261965,-2.172588
681032,8.325131,8.094029,-2.226423
681035,8.325131,8.094029,-2.226423
681037,8.018855,7.75813,-2.338582
681040,7.867988,7.591066,-2.396126
681042,7.867988,7.591066,-2.396126
681046,7.574736,7.259582,-2.520725
681048,7.434636,7.097962,-2.584977
681051,7.434636,7.097962,-2.584977
681053,7.303797,6.94574,-2.646119
681056,7.303797,6.94574,-2.646119
681058,7.025543,6.614439,-2.789936
681061,6.9045,6.467963,-2.853688
681063,6.9045,6.467963,-2.853688
681066,6.577364,6.069569,-3.001005
681068,6.437179,5.894483,-3.067714
681071,6.437179,5.894483,-3.067714
681073,6.143791,5.501889,-3.230164
681075,6.143791,5.501889,-3.230164
681078,6.019039,5.328993,-3.302923
681080,5.90299,5.147574,-3.398803
681083,5.90299,5.147574,-3.398803
681085,5.702311,4.806605,-3.589542
681089,5.702311,4.806605,-3.589542
681091,5.702311,4.806605,-3.589542
681094,5.702311,4.806605,-3.589542
681096,5.702311,4.806605,-3.589542
681099,5.702311,4.806605,-3.589542
681101,5.702311,4.806605,-3.589542
681104,5.702311,4.806605,-3.589542
681106,5.535234,4.488426,-3.782686
681109,5.402761,4.20221,-3.959382
681111,5.402761,4.20221,-3.959382
681114,5.317398,3.948436,-4.147135
681116,5.317398,3.948436,-4.147135
681119,5.260714,3.729774,-4.315158
681121,5.232593,3.538284,-4.478509
681124,5.232593,3.538284,-4.478509
681126,5.22356,3.37661,-4.625757
681129,5.235587,3.24033,-4.771221
681132,5.235587,3.24033,-4.771221
681135,5.293835,3.044976,-5.020827
681137,5.293835,3.044976,-5.020827
681140,5.351999,2.992579,-5.145823
681142,5.413414,2.954792,-5.26131
681145,5.413414,2.954792,-5.26131
681147,5.495866,2.935717,-5.388925
681150,5.495866,2.935717,-5.388925
681152,5.495866,2.935717,-5.388925
681155,5.600317,2.932981,-5.53311
681157,5.600317,2.932981,-5.53311
681160,5.815273,2.974338,-5.794068
681162,5.928901,3.014608,-5.915893
681165,5.928901,3.014608,-5.915893
681167,6.037834,3.061837,-6.027045
681170,6.264035,3.185736,-6.245353
681172,6.264035,3.185736,-6.245353
681176,6.370738,-3.251548,-6.343225
681178,6.370738,-3.251548,-6.343225
681181,6.595526,-3.405593,-6.542208
681183,6.709054,-3.489305,-6.637878
681186,6.709054,-3.489305,-6.637878
681188,6.824783,-3.575332,-6.735981
681191,6.824783,-3.575332,-6.735981
681193,7.048736,-3.750036,-6.917924
681196,7.16092,-3.833898,-7.009274
681198,7.16092,-3.833898,-7.009274
681201,7.275995,-3.92346,-7.100201
681203,7.49245,-4.097107,-7.27114
681206,7.49245,-4.097107,-7.27114
681208,7.603053,-4.189374,-7.354981
681210,7.603053,-4.189374,-7.354981
681213,7.72375,-4.28025,-7.45085
681216,7.843076,-4.373451,-7.54296
681219,7.843076,-4.373451,-7.54296
681221,8.081141,-4.554791,-7.727255
681224,8.202577,-4.646502,-7.820796
681226,8.202577,-4.646502,-7.820796
681229,8.202577,-4.646502,-7.820796
681231,8.202577,-4.646502,-7.820796
681234,8.202577,-4.646502,-7.820796
681236,8.39632,-4.79285,-7.969547
681239,8.39632,-4.79285,-7.969547
681241,8.580757,-4.936259,-8.107722
681244,8.747206,-5.062021,-8.233541
681246,8.747206,-5.062021,-8.233541
681249,9.06202,-5.310096,-8.463643
681251,9.06202,-5.310096,-8.463643
681254,9.206776,-5.424119,-8.568526
681256,9.206776,-5.424119,-8.568526
681260,9.358891,-5.547648,-8.67591
681262,9.358891,-5.547648,-8.67591
681265,9.514609,-5.658596,-8.797456
681267,9.514609,-5.658596,-8.797456
681270,9.514609,-5.658596,-8.797456
681272,9.514609,-5.658596,-8.797456
681275,9.787817,-5.837511,-9.02639
681277,9.787817,-5.837511,-9.02639
681280,9.787817,-5.837511,-9.02639
681282,10.01292,-5.98815,-9.218763
681285,10.09927,-6.038353,-9.300434
681287,10.09927,-6.038353,-9.300434
681290,10.19682,-6.1022,-9.385797
681292,10.19682,-6.1022,-9.385797
681295,10.29812,-6.172634,-9.470398
681297,10.37826,-6.229196,-9.540977
681300,10.37826,-6.229196,-9.540977
681303,10.46541,-6.29373,-9.613701
681306,10.54316,-6.344245,-9.68708
681308,10.54316,-6.344245,-9.68708
681311,10.62399,-6.400002,-9.759169
681313,10.62399,-6.400002,-9.759169
681316,10.77249,-6.484736,-9.902819
681318,10.85248,-6.536751,-9.973936
681321,10.85248,-6.536751,-9.973936
681323,10.9695,-6.579242,-10.0997
681326,10.9695,-6.579242,-10.0997
681328,11.03423,-6.612185,-10.16192
681331,11.07859,-6.625991,-10.21394
681333,11.07859,-6.625991,-10.21394
681336,11.13203,-6.650688,-10.26943
681338,11.21721,-6.68014,-10.36758
681340,11.21721,-6.68014,-10.36758
681344,11.27026,-6.707592,-10.42035
681346,11.27026,-6.707592,-10.42035
681349,11.31164,-6.724237,-10.4683
681351,11.39076,-6.759408,-10.55842
681354,11.39076,-6.759408,-10.55842
681356,11.42896,-6.777836,-10.60115
681359,11.47429,-6.803339,-10.64732
681361,11.47429,-6.803339,-10.64732
681364,11.54886,-6.836499,-10.7276
681366,11.54886,-6.836499,-10.7276
681369,11.59354,-6.861328,-10.77106
681371,11.62541,-6.865557,-10.80857
681374,11.62541,-6.865557,-10.80857
681376,11.70809,-6.896883,-10.89332
681379,11.73432,-6.892644,-10.92786
681381,11.73432,-6.892644,-10.92786
681384,11.76754,-6.897195,-10.96593
681387,11.76754,-6.897195,-10.96593
681390,11.80382,-6.878572,-11.02552
681392,11.83351,-6.882506,-11.06141
681395,11.83351,-6.882506,-11.06141
681397,11.84392,-6.864757,-11.08756
681400,11.86475,-6.858011,-11.11973
681402,11.86475,-6.858011,-11.11973
681405,11.86377,-6.82691,-11.14657
681407,11.86377,-6.82691,-11.14657
681410,11.87824,-6.824611,-11.16971
681412,11.86691,-6.794484,-11.17967
681415,11.86691,-6.794484,-11.17967
681417,11.87376,-6.763758,-11.21603
681420,11.86246,-6.745001,-11.21833
681422,11.86246,-6.745001,-11.21833
681425,11.86285,-6.73502,-11.22926
681427,11.86285,-6.73502,-11.22926
681431,11.83578,-6.692869,-11.22977
681433,11.83568,-6.682723,-11.23936
681436,11.83568,-6.682723,-11.23936
681438,11.82258,-6.641452,-11.24667
681441,11.82205,-6.58913,-11.27603
681443,11.82205,-6.58913,-11.27603
681446,11.80103,-6.550416,-11.27369
681448,11.80103,-6.550416,-11.27369
681451,11.79009,-6.521403,-11.27818
681453,11.73247,-6.413284,-11.27344
681456,11.73247,-6.413284,-11.27344
681458,11.71884,-6.376275,-11.27952
681461,11.71884,-6.376275,-11.27952
681463,11.68096,-6.322698,-11.26706
681466,11.63835,-6.246482,-11.26376
681468,11.63835,-6.246482,-11.26376
681470,11.59993,-6.18114,-11.25393
681474,11.57272,-6.128487,-11.25053
681476,11.57272,-6.128487,-11.25053
681479,11.51702,-6.020277,-11.24185
681481,11.51702,-6.020277,-11.24185
681484,11.49007,-5.966966,-11.23736
681486,11.43862,-5.86528,-11.22647
681489,11.43862,-5.86528,-11.22647
681491,11.41532,-5.816925,-11.22183
681494,11.37655,-5.752241,-11.20465
681496,11.37655,-5.752241,-11.20465
681499,11.32571,-5.654404,-11.18729
681501,11.32571,-5.654404,-11.18729
681504,11.29545,-5.585003,-11.1797
681506,11.25757,-5.481155,-11.17574
681509,11.25757,-5.481155,-11.17574
681511,11.22472,-5.441793,-11.15471
681515,11.19938,-5.40849,-11.13959
681517,11.19938,-5.40849,-11.13959
681520,11.18016,-5.379571,-11.1296
681522,11.18016,-5.379571,-11.1296
681525,11.11558,-5.304152,-11.08591
681527,11.07324,-5.263172,-11.05309
681530,11.07324,-5.263172,-11.05309
681532,11.0396,5.228547,-11.02748
681535,10.97375,5.166153,-10.97548
681537,10.97375,5.166153,-10.97548
681540,10.94249,5.13885,-10.94972
681542,10.94249,5.13885,-10.94972
681545,10.89748,5.106799,-10.90968
681547,10.8612,5.080605,-10.87696
681550,10.8612,5.080605,-10.87696
681552,10.78604,5.034856,-10.80564
681555,10.7482,5.014697,-10.7683
681558,10.7482,5.014697,-10.7683
681561,10.71721,4.998575,-10.73704
681563,10.71721,4.998575,-10.73704
681566,10.66254,4.979765,-10.68145
681568,10.61717,4.964121,-10.63477
681571,10.55766,4.946132,-10.57365
681573,10.50746,4.931137,-10.52149
681576,10.4651,4.918845,-10.47685
681578,10.4651,4.918845,-10.47685
681581,10.41645,4.906163,-10.42447
681583,10.41645,4.906163,-10.42447
681586,10.37509,4.89653,-10.37877
681588,10.28979,4.872988,-10.28275
681591,10.28979,4.872988,-10.28275
681593,10.25649,4.865948,-10.24354
681596,10.25649,4.865948,-10.24354
681598,10.22214,4.853733,-10.20232
681601,10.16318,4.836266,-10.12887
681604,10.16318,4.836266,-10.12887
681606,10.13774,4.83047,-10.09584
681609,10.11536,4.827224,-10.06552
681611,10.11536,4.827224,-10.06552
681614,10.0675,4.820401,-10.00302
681616,10.0675,4.820401,-10.00302
681619,10.04751,4.820117,-9.975138
681621,10.00243,4.812429,-9.920061
681624,10.00243,4.812429,-9.920061
681626,9.982784,4.811656,-9.894038
681629,9.955443,4.802283,-9.865716
681631,9.955443,4.802283,-9.865716
681634,9.908497,4.791624,-9.812675
681636,9.908497,4.791624,-9.812675
681639,9.875378,4.780777,-9.782009
681641,9.845823,4.772903,-9.753002
681645,9.845823,4.772903,-9.753002
681647,9.785386,4.761603,-9.694567
681650,9.754937,4.757734,-9.665238
681652,9.754937,4.757734,-9.665238
681655,9.689576,4.75242,-9.606008
681657,9.689576,4.75242,-9.606008
681660,9.661739,4.751225,-9.578957
681662,9.625411,4.749699,-9.545796
681665,9.625411,4.749699,-9.545796
681667,9.561846,4.748833,-9.484108
681670,9.524376,4.745944,-9.450452
681672,9.524376,4.745944,-9.450452
681675,9.458664,4.742723,-9.388017
681677,9.458664,4.742723,-9.388017
681680,9.419349,4.740203,-9.35303
681682,9.350362,4.737351,-9.288507
681686,9.350362,4.737351,-9.288507
681688,9.312534,4.731641,-9.2554
681691,9.277182,4.727251,-9.223219
681693,9.277182,4.727251,-9.223219
681696,9.213625,4.7126,-9.166604
681698,9.213625,4.7126,-9.166604
681701,9.184615,4.707234,-9.139489
681703,9.154033,4.697445,-9.112014
681706,9.154033,4.697445,-9.112014
681708,9.096668,4.682408,-9.058203
681711,9.06772,4.672525,-9.032223
681713,9.06772,4.672525,-9.032223
681716,9.013365,4.657156,-8.981417
681718,9.013365,4.657156,-8.981417
681721,8.986688,4.651306,-8.957322
681723,8.935691,4.641694,-8.909576
681726,8.935691,4.641694,-8.909576
681729,8.91284,4.639921,-8.888913
681731,8.91284,4.639921,-8.888913
681734,8.88951,4.638063,-8.867162
681736,8.865788,4.636077,-8.844623
681739,8.865788,4.636077,-8.844623
681741,8.840869,4.630836,-8.798192
681744,8.791603,4.628381,-8.776217
681746,8.791603,4.628381,-8.776217
681749,8.7682,4.625968,-8.754344
681751,8.7682,4.625968,-8.754344
681754,8.726882,4.619952,-8.715553
681756,8.707368,4.616431,-8.697143
681759,8.707368,4.616431,-8.697143
681761,8.687132,4.613163,-8.677744
681764,8.650698,4.60228,-8.643292
681766,8.650698,4.60228,-8.643292
681769,8.631968,4.597638,-8.625254
681772,8.631968,4.597638,-8.625254
681775,8.599574,4.583771,-8.594457
681777,8.582269,4.577955,-8.577713
681780,8.582269,4.577955,-8.577713
681782,8.567334,4.567761,-8.563597
681785,8.538977,4.546269,-8.536515
681787,8.538977,4.546269,-8.536515
681790,8.525672,4.535356,-8.523713
681792,8.525672,4.535356,-8.523713
681795,8.506207,4.510974,-8.505054
681797,8.498355,4.49806,-8.497499
681800,8.498355,4.49806,-8.497499
681802,8.488503,4.486637,-8.487948
681805,8.481884,4.452543,-8.481376
681807,8.481884,4.452543,-8.481376
681810,8.474843,4.438532,-8.47438
681812,8.474843,4.438532,-8.47438
681816,8.467795,4.403755,-8.467285
681818,8.460928,4.389232,-8.460394
681821,8.460928,4.389232,-8.460394
681823,8.460069,4.370226,-8.459419
681826,8.455472,4.334224,-8.454496
681828,8.455472,4.334224,-8.454496
681831,8.452034,4.31729,-8.450895
681833,8.452034,4.31729,-8.450895
681836,8.446665,4.302021,-8.445362
681838,8.441083,4.267281,-8.439013
681841,8.441083,4.267281,-8.439013
681843,8.435591,4.252477,-8.433262
681846,8.430724,4.223409,-8.427415
681848,8.430724,4.223409,-8.427415
681851,8.425411,4.210404,-8.421751
681853,8.425411,4.210404,-8.421751
681857,8.417529,4.182824,-8.412466
681859,8.411812,4.17068,-8.406231
681861,8.411812,4.17068,-8.406231
681864,8.408497,4.155767,-8.402188
681866,8.408497,4.155767,-8.402188
681869,8.397536,4.128819,-8.390073
681871,8.390775,4.118085,-8.382814
681874,8.390775,4.118085,-8.382814
681876,8.383517,4.107848,-8.375104
681879,8.369076,4.089835,-8.35945
681881,8.369076,4.089835,-8.35945
681884,8.361494,4.081255,-8.351389
681886,8.361494,4.081255,-8.351389
681889,8.3181,4.06953,-8.308558
681891,8.299122,4.062884,-8.289772
681894,8.299122,4.062884,-8.289772
681896,8.25809,4.052846,-8.24955
681900,8.2405,4.047382,-8.232252
681902,8.2405,4.047382,-8.232252
681905,8.216998,4.045204,-8.209324
681907,8.216998,4.045204,-8.209324
681910,8.176396,4.038663,-8.169574
681912,8.151698,4.039633,-8.14553
681915,8.151698,4.039633,-8.14553
681917,8.108377,4.037742,-8.103096
681920,8.081796,4.039779,-8.077058
681922,8.081796,4.039779,-8.077058
681925,8.057784,4.040457,-8.053397
681927,8.035949,4.040069,-8.031844
681930,8.007316,4.041184,-8.003515
681932,7.981237,4.041136,-7.977646
681935,7.981237,4.041136,-7.977646
681937,7.927562,4.041378,-7.924219
681940,7.903682,4.040166,-7.900403
681943,7.903682,4.040166,-7.900403
681946,7.881846,4.035801,-7.878409
681948,7.881846,4.035801,-7.878409
681951,7.841574,4.026863,-7.837868
681953,7.809142,4.022094,-7.805723
681956,7.809142,4.022094,-7.805723
681958,7.778923,4.012394,-7.747953
681961,7.714062,4.00922,-7.711441
681963,7.714062,4.00922,-7.711441
681966,7.680252,4.005848,-7.677926
681968,7.680252,4.005848,-7.677926
681971,7.649014,4.002278,-7.646909
681973,7.581314,3.992971,-7.579527
681976,7.581314,3.992971,-7.579527
681978,7.555774,3.987916,-7.554008
681981,7.531868,3.983199,-7.530097
681984,7.531868,3.983199,-7.530097
681987,7.487053,3.970445,-7.485139
681989,7.487053,3.970445,-7.485139
681991,7.466898,3.963238,-7.4649
681994,7.447162,3.947296,-7.425551
681996,7.427691,3.947296,-7.425551
681999,7.408276,3.938903,-7.405998
682001,7.408276,3.938903,-7.405998
682004,7.384932,3.929695,-7.38254
682006,7.341069,3.913816,-7.338343
682009,7.341069,3.913816,-7.338343
682011,7.305785,3.909511,-7.302722
682014,7.273756,3.905501,-7.270249
682016,7.273756,3.905501,-7.270249
682019,7.206908,3.898425,-7.202333
682021,7.206908,3.898425,-7.202333
682024,7.172034,3.895159,-7.166808
682027,7.102135,3.887158,-7.095419
682030,7.102135,3.887158,-7.095419
682032,7.067246,3.882722,-7.05972
682035,7.035225,3.878584,-7.026827
682037,7.035225,3.878584,-7.026827
682040,6.969647,3.865942,-6.95962
682042,6.969647,3.865942,-6.95962
682045,6.940005,3.860467,-6.929143
682047,6.910378,3.849597,-6.898959
682050,6.910378,3.849597,-6.898959
682052,6.852345,3.825922,-6.839854
682055,6.824955,3.813722,-6.812012
682057,6.824955,3.813722,-6.812012
682060,6.772249,3.790236,-6.758711
682062,6.772249,3.790236,-6.758711
682065,6.746018,3.778698,-6.732253
682067,6.698785,3.759475,-6.684659
682071,6.698785,3.759475,-6.684659
682073,6.677086,3.751289,-6.662767
682076,6.655228,3.74366,-6.640685
682078,6.655228,3.74366,-6.640685
682081,6.615417,3.73523,-6.600935
682083,6.615417,3.73523,-6.600935
682086,6.595228,3.730824,-6.580642
682088,6.561005,3.730719,-6.546403
682091,6.561005,3.730719,-6.546403
682093,6.542148,3.729302,-6.527384
682096,6.526663,3.730299,-6.511865
682098,6.526663,3.730299,-6.511865
682101,6.493168,3.729722,-6.47802
682103,6.493168,3.729722,-6.47802
682106,6.482922,3.729249,-6.467781
682108,6.458375,3.726623,-6.442964
682112,6.458375,3.726623,-6.442964
682114,6.452361,3.723469,-6.436966
682117,6.443999,3.720312,-6.428492
682119,6.443999,3.720312,-6.428492
682121,6.432487,3.713517,-6.416983
682124,6.432487,3.713517,-6.416983
682126,6.424037,3.710404,-6.408421
682129,6.418602,3.709982,-6.402513
682131,6.418602,3.709982,-6.402513
682134,6.402605,3.708134,-6.385432
682136,6.402605,3.708134,-6.385432
682139,6.396998,3.709929,-6.378949
682141,6.381255,-3.711776,-6.361651
682144,6.381255,-3.711776,-6.361651
682146,6.377474,-3.715203,-6.356811
682149,6.372245,-3.717733,-6.350608
682151,6.372245,-3.717733,-6.350608
682155,6.372245,-3.717733,-6.350608
682157,6.372245,-3.717733,-6.350608
682160,6.372245,-3.717733,-6.350608
682162,6.365226,-3.723574,-6.342081
682165,6.365226,-3.723574,-6.342081
682167,6.34857,-3.731664,-6.322729
682170,6.343163,-3.73544,-6.316307
682172,6.343163,-3.73544,-6.316307
682175,6.33707,-3.738217,-6.309288
682177,6.33707,-3.738217,-6.309288
682180,6.327348,-3.741515,-6.297717
682182,6.323287,-3.7423,-6.292827
682185,6.323287,-3.7423,-6.292827
682187,6.316152,-3.746118,-6.282755
682190,6.311555,-3.747425,-6.276886
682192,6.311555,-3.747425,-6.276886
682195,6.301701,-3.752124,-6.263409
682198,6.301701,-3.752124,-6.263409
682201,6.296316,-3.755306,-6.255766
682203,6.290241,-3.76312,-6.246608
682206,6.290241,-3.76312,-6.246608
682208,6.277417,-3.775328,-6.228535
682211,6.271948,-3.783566,-6.220283
682213,6.271948,-3.783566,-6.220283
682216,6.260278,-3.796482,-6.203587
682218,6.260278,-3.796482,-6.203587
682221,6.256111,-3.806115,-6.19682
682223,6.251409,-3.814337,-6.189698
682226,6.251409,-3.814337,-6.189698
682228,6.24438,-3.831548,-6.1773
682231,6.241647,-3.840277,-6.17168
682233,6.241647,-3.840277,-6.17168
682236,6.238191,-3.847969,-6.165546
682238,6.238191,-3.847969,-6.165546
682242,6.233349,-3.868423,-6.155363
682244,6.232217,-3.880754,-6.151508
682247,6.232217,-3.880754,-6.151508
682249,6.227685,-3.900585,-6.141876
682251,6.227496,-3.910613,-6.139386
682254,6.227496,-3.910613,-6.139386
682256,6.226394,-3.919416,-6.136064
682259,6.226394,-3.919416,-6.136064
682261,6.224221,-3.935073,-6.130118
682264,6.222961,-3.942133,-6.127111
682266,6.222961,-3.942133,-6.127111
682269,6.221196,-3.948387,-6.123655
682271,6.224126,-3.955176,-6.124647
682274,6.224126,-3.955176,-6.124647
682276,6.224032,-3.958343,-6.123431
682279,6.224032,-3.958343,-6.123431
682281,6.228157,-3.958541,-6.127944
682285,6.228755,-3.959283,-6.128327
682287,6.228755,-3.959283,-6.128327
682290,6.229416,-3.957898,-6.129735
682292,6.229416,-3.957354,-6.129831
682295,6.230454,-3.953591,-6.133092
682297,6.230864,-3.949031,-6.135904
682300,6.230864,-3.949031,-6.135904
682302,6.230235,-3.947792,-6.136
682305,6.23143,-3.941139,-6.139864
682307,6.23143,-3.941139,-6.139864
682310,6.23121,-3.928897,-6.144588
682312,6.23121,-3.928897,-6.144588
682315,6.230266,-3.923361,-6.145801
682317,6.227496,-3.912665,-6.1473
682320,6.227496,-3.912665,-6.1473
682322,6.225953,-3.907657,-6.147683
682326,6.224221,-3.903746,-6.14746
682328,6.224221,-3.903746,-6.14746
682331,6.221859,-3.898174,-6.147396
682333,6.221859,-3.898174,-6.147396
682336,6.217477,-3.89043,-6.146088
682338,6.21426,-3.885192,-6.14478
682341,6.21426,-3.885192,-6.14478
682343,6.20782,-3.875655,-6.14194
682346,6.204724,-3.871307,-6.14044
682348,6.204724,-3.871307,-6.14044
682351,6.198275,-3.862546,-6.136958
682353,6.198275,-3.862546,-6.136958
682356,6.194984,-3.858336,-6.13501
682358,6.192041,-3.854985,-6.133092
682361,6.192041,-3.854985,-6.133092
682363,6.188589,-3.850208,-6.130982
682366,6.182979,-3.843437,-6.127207
682369,6.182979,-3.843437,-6.127207
682372,6.178348,-3.838798,-6.124039
682374,6.178348,-3.838798,-6.124039
682377,6.174444,-3.835124,-6.121253
682379,6.166024,-3.825768,-6.115486
682381,6.166024,-3.825768,-6.115486
682384,6.162716,-3.822593,-6.113017
682386,6.154216,-3.814286,-6.106889
682389,6.154216,-3.814286,-6.106889
682391,6.150998,-3.81141,-6.104448
682394,6.150998,-3.81141,-6.104448
682396,6.147778,-3.804983,-6.102553
682399,6.142674,-3.795914,-6.099276
682401,6.142674,-3.795914,-6.099276
682404,6.13913,-3.789409,-6.097282
682406,6.136127,-3.784135,-6.095514
682409,6.136127,-3.784135,-6.095514
682412,6.130118,-3.773356,-6.092265
682415,6.130118,-3.773356,-6.092265
682417,6.127239,-3.768008,-6.090785
682420,6.121382,-3.756714,-6.087855
682422,6.121382,-3.756714,-6.087855
682425,6.118466,-3.751028,-6.086309
682427,6.118466,-3.751028,-6.086309
682430,6.107916,-3.741463,-6.078767
682432,6.103806,-3.73785,-6.075735
682435,6.103806,-3.73785,-6.075735
682437,6.096607,-3.734181,-6.069828
682440,6.085278,-3.728409,-6.060487
682442,6.085278,-3.728409,-6.060487
682445,6.077703,-3.726886,-6.053787
682447,6.077703,-3.726886,-6.053787
682450,6.071313,-3.725414,-6.048053
682452,6.058254,-3.722733,-6.036113
682456,6.058254,-3.722733,-6.036113
682458,6.051941,-3.721523,-6.0302
682461,6.046627,-3.72047,-6.025256
682463,6.046627,-3.72047,-6.025256
682466,6.03241,-3.718786,-6.011282
682468,6.03241,-3.718786,-6.011282
682471,6.021708,-3.718154,-6.000479
682473,6.005606,-3.716732,-5.984384
682476,6.005606,-3.716732,-5.984384
682478,5.994171,-3.716995,-5.972712
682481,5.98481,-3.716995,-5.963153
682483,5.977141,-3.716837,-5.95539
682486,5.96598,-3.717206,-5.943859
682488,5.96598,-3.717206,-5.943859
682491,5.956839,-3.717416,-5.934419
682493,5.935807,-3.718628,-5.912413
682497,5.935807,-3.718628,-5.912413
682499,5.924568,-3.719523,-5.900566
682502,5.900665,-3.721838,-5.875064
682504,5.900665,-3.721838,-5.875064
682507,5.888428,-3.723101,-5.861971
682509,5.888428,-3.723101,-5.861971
682511,5.878033,-3.7241,-5.850792
682514,5.851429,-3.726045,-5.821977
682516,5.851429,-3.726045,-5.821977
682519,5.835697,-3.725099,-5.805187
682521,5.822145,-3.72431,-5.790786
682524,5.822145,-3.72431,-5.790786
682526,5.795083,-3.720523,-5.762488
682529,5.795083,-3.720523,-5.762488
682531,5.781605,-3.717891,-5.748628
682534,5.769762,-3.715625,-5.736443
682536,5.769762,-3.715625,-5.736443
682540,5.735862,-3.705599,-5.702311
682542,5.721766,-3.701634,-5.688064
682545,5.721766,-3.701634,-5.688064
682547,5.688925,-3.686368,-5.655825
682550,5.688925,-3.686368,-5.655825
682552,5.675128,-3.680361,-5.642155
682555,5.659912,-3.669811,-5.627826
682557,5.659912,-3.669811,-5.627826
682560,5.629427,-3.646528,-5.599582
682562,5.629427,-3.646528,-5.599582
682565,5.614577,-3.634535,-5.585986
682567,5.601332,-3.624338,-5.573728
682570,5.601332,-3.624338,-5.573728
682572,5.569753,-3.597987,-5.54475
682575,5.556049,-3.587469,-5.532047
682577,5.556049,-3.587469,-5.532047
682580,5.540295,-3.574455,-5.517433
682583,5.540295,-3.574455,-5.517433
682586,5.512565,-3.553249,-5.491443
682588,5.496543,-3.541603,-5.47622
682591,5.496543,-3.541603,-5.47622
682593,5.469201,-3.522701,-5.450106
682596,5.45122,3.511678,-5.432819
682598,5.45122,3.511678,-5.432819
682601,5.420289,3.493343,-5.402979
682603,5.420289,3.493343,-5.402979
682606,5.402072,3.482621,-5.385579
682608,5.370056,3.464189,-5.354744
682611,5.370056,3.464189,-5.354744
682613,5.349216,3.452186,-5.33491
682616,5.330427,3.441621,-5.316882
682618,5.330427,3.441621,-5.316882
682621,5.291946,3.417817,-5.280122
682624,5.291946,3.417817,-5.280122
682627,5.274961,3.40772,-5.263619
682629,5.242693,3.385759,-5.232031
682632,5.242693,3.385759,-5.232031
682634,5.228397,3.376494,-5.217893
682637,5.214286,3.365925,-5.203829
682639,5.20093,3.35643,-5.190408
682642,5.188293,3.347786,-5.17767
682644,5.188293,3.347786,-5.17767
682646,5.164257,3.331724,-5.153204
682649,5.152102,3.324076,-5.140832
682651,5.152102,3.324076,-5.140832
682654,5.140871,3.31582,-5.129347
682656,5.119291,3.300848,-5.107221
682659,5.119291,3.300848,-5.107221
682661,5.106914,3.293129,-5.094777
682664,5.106914,3.293129,-5.094777
682667,5.094238,3.285391,-5.081993
682670,5.068984,3.270759,-5.056639
682672,5.068984,3.270759,-5.056639
682675,5.056755,3.263988,-5.04438
682677,5.03252,3.253595,-5.020281
682680,5.03252,3.253595,-5.020281
682682,5.021139,3.248416,-5.00895
682685,5.021139,3.248416,-5.00895
682687,5.008442,3.248175,-4.996027
682690,5.0012,3.246728,-4.988727
682692,5.0012,3.246728,-4.988727
682695,4.99073,3.248416,-4.978506
682697,4.99073,3.248416,-4.978506
682700,4.970432,3.248657,-4.958514
682702,4.960489,3.247572,-4.948627
682705,4.960489,3.247572,-4.948627
682707,4.934552,3.248235,-4.922985
682711,4.918566,3.246849,-4.907042
682713,4.918566,3.246849,-4.907042
682716,4.903327,3.244979,-4.891767
682718,4.903327,3.244979,-4.891767
682721,4.871098,3.239484,-4.859139
682723,4.854904,3.236219,-4.842621
682726,4.854904,3.236219,-4.842621
682728,4.821498,3.233435,-4.807868
682731,4.804526,3.233314,-4.789988
682733,4.804526,3.233314,-4.789988
682736,4.770235,3.234404,-4.75345
682738,4.770235,3.234404,-4.75345
682741,4.752915,3.235251,-4.73491
682743,4.736482,-3.235493,-4.717295
682746,4.736482,-3.235493,-4.717295
682748,4.699154,-3.238456,-4.677302
682752,4.682492,-3.239001,-4.659469
682754,4.682492,-3.239001,-4.659469
682757,4.665225,-3.236643,-4.64123
682759,4.665225,-3.236643,-4.64123
682762,4.630032,-3.227435,-4.603854
682764,4.612696,-3.221485,-4.585394
682767,4.612696,-3.221485,-4.585394
682769,4.579495,-3.205096,-4.549628
682772,4.563342,-3.195492,-4.532072
682774,4.563342,-3.195492,-4.532072
682776,4.528353,-3.179523,-4.493965
682779,4.528353,-3.179523,-4.493965
682781,4.51015,-3.172743,-4.474133
682784,4.470674,-3.160936,-4.430714
682786,4.470674,-3.160936,-4.430714
682789,4.450254,-3.155791,-4.4082
682791,4.431333,-3.151073,-4.387312
682795,4.431333,-3.151073,-4.387312
682797,4.38079,-3.135128,-4.333004
682800,4.38079,-3.135128,-4.333004
682802,4.358963,-3.128564,-4.30939
682805,4.310117,-3.106082,-4.255884
682807,4.310117,-3.106082,-4.255884
682810,4.288158,-3.096803,-4.231748
682812,4.23776,-3.073771,-4.175982
682815,4.23776,-3.073771,-4.175982
682817,4.215704,-3.06433,-4.151289
682820,4.215704,-3.06433,-4.151289
682822,4.191757,-3.059087,-4.123028
682825,4.148268,-3.049473,-4.071503
682827,4.148268,-3.049473,-4.071503
682830,4.127064,-3.050884,-4.042734
682832,4.127064,-3.050884,-4.042734
682835,4.089118,-3.052488,-3.991058
682838,4.068327,-3.052873,-3.958739
682841,4.068327,-3.052873,-3.958739
682843,4.021121,-3.057679,-3.88489
682846,3.996451,-3.061901,-3.845475
682848,3.996451,-3.061901,-3.845475
682851,3.974044,-3.066054,-3.809046
682853,3.974044,-3.066054,-3.809046
682856,3.939002,-3.033123,-3.760881
682858,3.921963,-3.020706,-3.737117
682861,3.921963,-3.020706,-3.737117
682863,3.905702,-2.993037,-3.71768
682866,3.873987,-2.950483,-3.677913
682868,3.873987,-2.950483,-3.677913
682871,3.857423,-2.927637,-3.657359
682873,3.857423,-2.927637,-3.657359
682876,3.826076,-2.891982,-3.616983
682878,3.81141,-2.879296,-3.593467
682882,3.81141,-2.879296,-3.593467
682884,3.783255,-2.859033,-3.548507
682887,3.760881,-2.850462,-3.512459
682889,3.760881,-2.850462,-3.512459
682892,3.72126,-2.837039,-3.447078
682894,3.72126,-2.837039,-3.447078
682897,3.692789,-2.83835,-3.398976
682899,3.667783,-2.83966,-3.355497
682902,3.667783,-2.83966,-3.355497
682904,3.618661,-2.845788,-3.265128
682906,3.595701,-2.850324,-3.220269
682909,3.595701,-2.850324,-3.220269
682911,3.549334,-2.868057,-3.125747
682914,3.549334,-2.868057,-3.125747
682916,3.526533,-2.879976,-3.076953
682919,3.478966,-2.887918,-2.993429
682921,3.478966,-2.887918,-2.993429
682925,3.459212,-2.891711,-2.956249
682927,3.437523,-2.897662,-2.894823
682930,3.437523,-2.897662,-2.894823
682932,3.43245,-2.900768,-2.867101
682935,3.43245,-2.900768,-2.867101
682937,3.409385,-2.885069,-2.838281
682940,3.369587,-2.86348,-2.78073
682942,3.369587,-2.86348,-2.78073
682945,3.345095,-2.85355,-2.747303
682947,3.303516,-2.840073,-2.68358
682950,3.303516,-2.840073,-2.68358
682952,3.279248,-2.848744,-2.640417
682955,3.279248,-2.848744,-2.640417
682957,3.257383,-2.856704,-2.598948
682960,3.215646,-2.882965,-2.512013
682962,3.215646,-2.882965,-2.512013
682966,3.196349,-2.89935,-2.468152
682968,3.196349,-2.89935,-2.468152
682971,3.157961,-2.933449,-2.37965
682973,3.139184,-2.950748,-2.334729
682976,3.139184,-2.950748,-2.334729
682978,3.108161,-2.962798,-2.281476
682981,3.081149,-2.974009,-2.230901
682983,3.081149,-2.974009,-2.230901
682986,3.029054,-3.001527,-2.127989
682988,3.029054,-3.001527,-2.127989
682991,3.004917,-3.016556,-2.077919
682993,2.984259,-3.029959,-2.031532
682996,2.984259,-3.029959,-2.031532
682998,2.925229,-3.024592,-1.966226
683001,2.90124,-3.024203,-1.93391
683003,2.90124,-3.024203,-1.93391
683006,2.821402,-3.026274,-1.842813
683009,2.821402,-3.026274,-1.842813
683012,2.766969,-3.012594,-1.793624
683014,2.680076,-2.99454,-1.703643
683017,2.680076,-2.99454,-1.703643
683019,2.645231,-2.988848,-1.662481
683022,2.600153,-2.957507,-1.639844
683024,2.600153,-2.957507,-1.639844
683027,2.508348,-2.896784,-1.594096
683029,2.508348,-2.896784,-1.594096
683032,2.462912,-2.86792,-1.571221
683034,2.369182,-2.817653,-1.5229
683036,2.369182,-2.817653,-1.5229
683039,2.321446,-2.795614,-1.496848
683041,2.279073,-2.77749,-1.470335
683044,2.279073,-2.77749,-1.470335
683046,2.191603,-2.738668,-1.427247
683049,2.191603,-2.738668,-1.427247
683052,2.153042,-2.723402,-1.40249
683055,2.093589,-2.699869,-1.36358
683057,2.093589,-2.699869,-1.36358
683060,2.066207,-2.690064,-1.34188
683062,2.031918,-2.667044,-1.329868
683065,2.031918,-2.667044,-1.329868
683067,1.968017,-2.629794,-1.296337
683070,1.968017,-2.629794,-1.296337
683072,1.926509,-2.602711,-1.282832
683075,1.845148,-2.554893,-1.25117
683077,1.845148,-2.554893,-1.25117
683080,1.804827,-2.533659,-1.232894
683082,1.729748,-2.49975,-1.196485
683085,1.729748,-2.49975,-1.196485
683087,1.694082,-2.485931,-1.177859
683090,1.694082,-2.485931,-1.177859
683092,1.625701,-2.466962,-1.134704
683096,1.593236,-2.460527,-1.111179
683098,1.593236,-2.460527,-1.111179
683101,1.561851,-2.454075,-1.087685
683103,1.561851,-2.454075,-1.087685
683106,1.530207,-2.448006,-1.06496
683108,1.530207,-2.448006,-1.06496
683111,1.530207,-2.448006,-1.06496
683113,1.530207,-2.448006,-1.06496
683116,1.432312,-2.418728,-0.9970112
683118,1.432312,-2.418728,-0.9970112
683121,1.391564,-2.40428,-0.971967
683123,1.391564,-2.40428,-0.971967
683126,1.318044,-2.380062,-0.9236568
683128,1.294827,-2.380966,-0.8965662
683131,1.294827,-2.380966,-0.8965662
683133,1.271186,-2.380555,-0.8704314
683137,1.230193,-2.368851,-0.8383681
683139,1.230193,-2.368851,-0.8383681
683142,1.211277,-2.35933,-0.828271
683144,1.211277,-2.35933,-0.828271
683147,1.201219,-2.348104,-0.8292154
683149,1.173865,-2.328097,-0.8201992
683152,1.173865,-2.328097,-0.8201992
683154,1.169523,-2.319506,-0.8240075
683157,1.150971,-2.303588,-0.8187665
683159,1.150971,-2.303588,-0.8187665
683162,1.150631,-2.295075,-0.8232948
683164,1.150631,-2.295075,-0.8232948
683166,1.140209,-2.280017,-0.8211529
683169,1.147565,-2.287387,-0.8139727
683171,1.147565,-2.287387,-0.8139727
683174,1.15012,-2.292601,-0.8047857
683176,1.156399,-2.294308,-0.7994187
683180,1.156399,-2.294308,-0.7994187
683182,1.159441,-2.291918,-0.8006416
683185,1.159441,-2.291918,-0.8006416
683187,1.175531,-2.293711,-0.8146936
683190,1.192226,-2.294478,-0.8292154
683192,1.192226,-2.294478,-0.8292154
683195,1.212085,-2.297462,-0.8467289
683197,1.234163,-2.300016,-0.8663754
683200,1.234163,-2.300016,-0.8663754
683202,1.282679,-2.322205,-0.8755867
683205,1.282679,-2.322205,-0.8755867
683207,1.35205,-2.356508,-0.8840382
683210,1.394233,-2.380144,-0.8924097
683212,1.394233,-2.380144,-0.8924097
683215,1.42807,-2.400043,-0.8972207
683217,1.490034,-2.434697,-0.9130027
683220,1.490034,-2.434697,-0.9130027
683223,1.518138,-2.449924,-0.9221727
683226,1.518138,-2.449924,-0.9221727
683228,1.540912,-2.462833,-0.9283059
683231,1.607665,-2.498732,-0.9569532
683233,1.607665,-2.498732,-0.9569532
683236,1.632548,-2.51287,-0.9661109
683238,1.632548,-2.51287,-0.9661109
683241,1.694544,-2.544221,-0.9999508
683243,1.718056,-2.556731,-1.011237
683246,1.718056,-2.556731,-1.011237
683248,1.780702,-2.596084,-1.048292
683251,1.814668,-2.618008,-1.072102
683253,1.814668,-2.618008,-1.072102
683256,1.868127,-2.653432,-1.106945
683258,1.868127,-2.653432,-1.106945
683261,1.889273,-2.667998,-1.119426
683264,1.957448,-2.723042,-1.163316
683267,1.957448,-2.723042,-1.163316
683269,1.984555,-2.745165,-1.17952
683272,2.032784,-2.77904,-1.229238
683274,2.032784,-2.77904,-1.229238
683277,2.062889,-2.793302,-1.265632
683279,2.062889,-2.793302,-1.265632
683282,2.089566,-2.806585,-1.296186
683284,2.138631,-2.825285,-1.356529
683287,2.138631,-2.825285,-1.356529
683289,2.161932,-2.832274,-1.38621
683292,2.212578,-2.842898,-1.454546
683294,2.212578,-2.842898,-1.454546
683296,2.239046,-2.847095,-1.491085
683299,2.239046,-2.847095,-1.491085
683301,2.263129,-2.851835,-1.522514
683304,2.301718,-2.845444,-1.591761
683307,2.301718,-2.845444,-1.591761
683310,2.335819,-2.839591,-1.652682
683312,2.352102,-2.836487,-1.681908
683315,2.352102,-2.836487,-1.681908
683317,2.368851,-2.835313,-1.70869
683320,2.368851,-2.835313,-1.70869
683322,2.401022,-2.826324,-1.770452
683325,2.416704,-2.824315,-1.796567
683327,2.416704,-2.824315,-1.796567
683330,2.436224,-2.823067,-1.826385
683332,2.474013,-2.823899,-1.879407
683335,2.474013,-2.823899,-1.879407
683337,2.494498,-2.824523,-1.905878
683340,2.494498,-2.824523,-1.905878
683342,2.513883,-2.82577,-1.930264
683345,2.553206,-2.830615,-1.975759
683347,2.553206,-2.830615,-1.975759
683351,2.572073,-2.833656,-1.997138
683353,2.588836,-2.836556,-2.014992
683356,2.605642,-2.839797,-2.032784
683358,2.622042,-2.843173,-2.050232
683361,2.622042,-2.843173,-2.050232
683363,2.649445,-2.854099,-2.074054
683366,2.663152,-2.859102,-2.086566
683368,2.663152,-2.859102,-2.086566
683371,2.679199,-2.871876,-2.094898
683373,2.679199,-2.871876,-2.094898
683376,2.711372,-2.893606,-2.115444
683378,2.729791,-2.909998,-2.122832
683381,2.729791,-2.909998,-2.122832
683383,2.765483,-2.937516,-2.14174
683386,2.777138,-2.949753,-2.143841
683388,2.777138,-2.949753,-2.143841
683392,2.80114,-2.970452,-2.153496
683394,2.80114,-2.970452,-2.153496
683397,2.814317,-2.984325,-2.154768
683399,2.827432,-2.996632,-2.158036
683402,2.827432,-2.996632,-2.158036
683404,2.855265,-3.022196,-2.164465
683407,2.869899,-3.035317,-2.16826
683409,2.869899,-3.035317,-2.16826
683412,2.884255,-3.048702,-2.171597
683414,2.884255,-3.048702,-2.171597
683417,2.911276,-3.071222,-2.181578
683419,2.926166,-3.084769,-2.184805
683422,2.926166,-3.084769,-2.184805
683424,2.940979,-3.097183,-2.189548
683426,2.971177,-3.118599,-2.20256
683429,2.971177,-3.118599,-2.20256
683431,3.000679,-3.136751,-2.218232
683435,3.000679,-3.136751,-2.218232
683437,3.016231,-3.142238,-2.229409
683440,3.031251,-3.147965,-2.240444
683442,3.031251,-3.147965,-2.240444
683445,3.061837,-3.159573,-2.263648
683447,3.077526,-3.165577,-2.275635
683450,3.077526,-3.165577,-2.275635
683452,3.110491,-3.178353,-2.300357
683455,3.110491,-3.178353,-2.300357
683457,3.127563,-3.184937,-2.312915
683460,3.143733,-3.191446,-2.3249
683462,3.143733,-3.191446,-2.3249
683465,3.180693,-3.208088,-2.349021
683467,3.200206,-3.215402,-2.36074
683470,3.200206,-3.215402,-2.36074
683472,3.236037,-3.229679,-2.383349
683475,3.236037,-3.229679,-2.383349
683478,3.258765,-3.241357,-2.393429
683481,3.279665,-3.252151,-2.403385
683483,3.279665,-3.252151,-2.403385
683486,3.3249,-3.278053,-2.422528
683488,3.348956,-3.292653,-2.432204
683491,3.348956,-3.292653,-2.432204
683493,3.400645,-3.328432,-2.450084
683496,3.400645,-3.328432,-2.450084
683498,3.427256,-3.348254,-2.458299
683501,3.451619,-3.365983,-2.466565
683503,3.451619,-3.365983,-2.466565
683506,3.502578,-3.412428,-2.473539
683508,3.525256,-3.431994,-2.478282
683511,3.525256,-3.431994,-2.478282
683513,3.586759,-3.492502,-2.48207
683516,3.586759,-3.492502,-2.48207
683518,3.61433,-3.518196,-2.485774
683522,3.678392,-3.584029,-2.486325
683524,3.678392,-3.584029,-2.486325
683527,3.706445,-3.61162,-2.488292
683529,3.706445,-3.61162,-2.488292
683532,3.770086,-3.680042,-2.482149
683534,3.798699,-3.709243,-2.481597
683537,3.798699,-3.709243,-2.481597
683539,3.862698,-3.778801,-2.474409
683542,3.892443,-3.809457,-2.473459
683544,3.892443,-3.809457,-2.473459
683547,3.923511,-3.842622,-2.471322
683549,3.923511,-3.842622,-2.471322
683552,3.980986,-3.901438,-2.470847
683554,4.008341,-3.931339,-2.4672
683556,4.008341,-3.931339,-2.4672
683559,4.060666,-3.985902,-2.464104
683561,4.083222,-4.009758,-2.459891
683565,4.083222,-4.009758,-2.459891
683567,4.12825,-4.055454,-2.45559
683570,4.12825,-4.055454,-2.45559
683572,4.147276,-4.075397,-2.451202
683575,4.1861,-4.114565,-2.446406
683577,4.1861,-4.114565,-2.446406
683580,4.196567,-4.127017,-2.441361
683582,4.209335,-4.140944,-2.438071
683585,4.209335,-4.140944,-2.438071
683587,4.221553,-4.152562,-2.432606
683590,4.221553,-4.152562,-2.432606
683592,4.241778,-4.171384,-2.430755
683595,4.24607,-4.174106,-2.429627
683597,4.24607,-4.174106,-2.429627
683600,4.252753,-4.179311,-2.429064
683602,4.257908,-4.182215,-2.427048
683606,4.257908,-4.182215,-2.427048
683608,4.264067,-4.187176,-2.426806
683611,4.264067,-4.187176,-2.426806
683613,4.282537,-4.206914,-2.423094
683616,4.293225,-4.217794,-2.422205
683618,4.293225,-4.217794,-2.422205
683621,4.294366,-4.218305,-2.422124
683623,4.304024,-4.226561,-2.422932
683626,4.304024,-4.226561,-2.422932
683628,4.306526,-4.228321,-2.424386
683631,4.306526,-4.228321,-2.424386
683633,4.311344,-4.232626,-2.425435
683636,4.311934,-4.233228,-2.42608
683638,4.311934,-4.233228,-2.42608
683641,4.314749,-4.235818,-2.426968
683643,4.317154,-4.237945,-2.429547
683646,4.317154,-4.237945,-2.429547
683649,4.317835,-4.238452,-2.431158
683652,4.317835,-4.238452,-2.431158
683654,4.298833,-4.218955,-2.437028
683657,4.275443,-4.194466,-2.446486
683659,4.275443,-4.194466,-2.446486
683662,4.262826,-4.182262,-2.450084
683664,4.262826,-4.182262,-2.450084
683667,4.254227,-4.173824,-2.453277
683669,4.240763,-4.161937,-2.457343
683672,4.240763,-4.161937,-2.457343
683674,4.235864,-4.158171,-2.458697
683677,4.228692,-4.153694,-2.458139
683679,4.228692,-4.153694,-2.458139
683682,4.221229,-4.149778,-2.457821
683684,4.221229,-4.149778,-2.457821
683686,4.213659,-4.147796,-2.453836
683689,4.208823,-4.147276,-2.450883
683692,4.208823,-4.147276,-2.450883
683695,4.198387,-4.145576,-2.444405
683697,4.193205,-4.144584,-2.44104
683700,4.193205,-4.144584,-2.44104
683702,4.181934,-4.141039,-2.434456
683705,4.181934,-4.141039,-2.434456
683707,4.176311,-4.139005,-2.431399
683710,4.172605,-4.138058,-2.429064
683712,4.172605,-4.138058,-2.429064
683715,4.160619,-4.132565,-2.42277
683717,4.151241,-4.126019,-2.41986
683720,4.151241,-4.126019,-2.41986
683722,4.13943,-4.118276,-2.416218
683725,4.13943,-4.118276,-2.416218
683727,4.133133,-4.113803,-2.414435
683730,4.128676,-4.11085,-2.413137
683732,4.128676,-4.11085,-2.413137
683736,4.123408,-4.10842,-2.41119
683738,4.121983,-4.10842,-2.410378
683741,4.121983,-4.10842,-2.410378
683743,4.121556,-4.108944,-2.409891
683746,4.121556,-4.108944,-2.409891
683748,4.124785,-4.114612,-2.410459
683751,4.126542,-4.117134,-2.410784
683753,4.126542,-4.117134,-2.410784
683756,4.132991,-4.123978,-2.412245
683758,4.148835,-4.140234,-2.416137
683761,4.148835,-4.140234,-2.416137
683763,4.157323,-4.148835,-2.418323
683766,4.157323,-4.148835,-2.418323
683768,4.196193,-4.184697,-2.42721
683771,4.222667,-4.208544,-2.433089
683773,4.222667,-4.208544,-2.433089
683777,4.244963,-4.228738,-2.438071
683779,4.245332,-4.228877,-2.437028
683782,4.245332,-4.228877,-2.437028
683784,4.246393,-4.229618,-2.436867
683787,4.246393,-4.229618,-2.436867
683789,4.241501,-4.223316,-2.436787
683792,4.23568,-4.21524,-2.437108
683794,4.23568,-4.21524,-2.437108
683797,4.230359,-4.208264,-2.437269
683799,4.230359,-4.208264,-2.437269
683802,4.223826,-4.199319,-2.437831
683804,4.218212,-4.192645,-2.43759
683807,4.218212,-4.192645,-2.43759
683809,4.214217,-4.187831,-2.43759
683812,4.222759,-4.193346,-2.44096
683814,4.222759,-4.193346,-2.44096
683816,4.226607,-4.1961,-2.442323
683820,4.226607,-4.1961,-2.442323
683822,4.216679,-4.17678,-2.457184
683825,4.213706,-4.170163,-2.462912
683827,4.213706,-4.170163,-2.462912
683830,4.215797,-4.172229,-2.463469
683832,4.220069,-4.17617,-2.464898
683835,4.220069,-4.17617,-2.464898
683837,4.211428,-4.163489,-2.470371
683840,4.211428,-4.163489,-2.470371
683842,4.204586,-4.153222,-2.475121
683845,4.201557,-4.144112,-2.483253
683847,4.201557,-4.144112,-2.483253
683850,4.200672,-4.14066,-2.486718
683852,4.210404,-4.148882,-2.487427
683855,4.210404,-4.148882,-2.487427
683857,4.225587,-4.161372,-2.489157
683860,4.225587,-4.161372,-2.489157
683863,4.237205,-4.172041,-2.489393
683866,4.255792,-4.188579,-2.490258
683868,4.255792,-4.188579,-2.490258
683871,4.265858,-4.19848,-2.48955
683873,4.274435,-4.206775,-2.489157
683876,4.274435,-4.206775,-2.489157
683878,4.293316,-4.223038,-2.493086
683881,4.293316,-4.223038,-2.493086
683883,4.303113,-4.230914,-2.496695
683886,4.311707,-4.237713,-2.499907
683888,4.32042,-4.24404,-2.504131
683891,4.328165,-4.249574,-2.50788
683893,4.335083,-4.253352,-2.51435
683896,4.335083,-4.253352,-2.51435
683898,4.346543,-4.259794,-2.52445
683901,4.346543,-4.259794,-2.52445
683904,4.354017,-4.262643,-2.535281
683907,4.36637,-4.267923,-2.551596
683909,4.36637,-4.267923,-2.551596
683912,4.371615,-4.267832,-2.564298
683914,4.376406,-4.268107,-2.574963
683917,4.376406,-4.268107,-2.574963
683919,4.384454,-4.267097,-2.59616
683922,4.384454,-4.267097,-2.59616
683924,4.387804,-4.266041,-2.606243
683927,4.393692,-4.264572,-2.624803
683929,4.393692,-4.264572,-2.624803
683932,4.396366,-4.264067,-2.633216
683934,4.396366,-4.264067,-2.633216
683937,4.398993,-4.263929,-2.640342
683939,4.419516,-4.25731,-2.687006
683942,4.419516,-4.25731,-2.687006
683944,4.425982,-4.251187,-2.706603
683948,4.437119,-4.242656,-2.737167
683950,4.437119,-4.242656,-2.737167
683952,4.445146,-4.238684,-2.758609
683955,4.445146,-4.238684,-2.758609
683957,4.452543,-4.23568,-2.777067
683960,4.466465,-4.230729,-2.811672
683962,4.466465,-4.230729,-2.811672
683965,4.473039,-4.228645,-2.827709
683967,4.479165,-4.227117,-2.841796
683970,4.479165,-4.227117,-2.841796
683972,4.491829,-4.228785,-2.866555
683975,4.491829,-4.228785,-2.866555
683977,4.482793,-4.231331,-2.850187
683980,4.475841,-4.233506,-2.837453
683982,4.475841,-4.233506,-2.837453
683985,4.458828,-4.236835,-2.807213
683987,4.449374,-4.23813,-2.790989
683991,4.449374,-4.23813,-2.790989
683993,4.432836,-4.240347,-2.762296
683996,4.432836,-4.240347,-2.762296
683998,4.425539,-4.241317,-2.749867
684001,4.419782,-4.24224,-2.73974
684003,4.419782,-4.24224,-2.73974
684006,4.410155,-4.24441,-2.721892
684008,4.406778,-4.245286,-2.715412
684011,4.406778,-4.245286,-2.715412
684013,4.401442,-4.248007,-2.70313
684016,4.401442,-4.248007,-2.70313
684018,4.399572,-4.249067,-2.698636
684021,4.398192,-4.250542,-2.694644
684023,4.398192,-4.250542,-2.694644
684026,4.39788,-4.254365,-2.688899
684028,4.398504,-4.256528,-2.686933
684032,4.398504,-4.256528,-2.686933
684034,4.399083,-4.258322,-2.68533
684037,4.399083,-4.258322,-2.68533
684039,4.399127,-4.258322,-2.683726
684042,4.399261,-4.258414,-2.683069
684044,4.399261,-4.258414,-2.683069
684047,4.399083,-4.259242,-2.681391
684049,4.398993,-4.260575,-2.679054
684052,4.398993,-4.260575,-2.679054
684054,4.399172,-4.260805,-2.678542
684057,4.399172,-4.260805,-2.678542
684059,4.399483,-4.261264,-2.677884
684062,4.399483,-4.261264,-2.677884
684064,4.399483,-4.261264,-2.677884
684067,4.399483,-4.261264,-2.677884
684069,4.399483,-4.261264,-2.677884
684072,4.403666,-4.266638,-2.675471
684075,4.406956,-4.270997,-2.673422
684078,4.406956,-4.270997,-2.673422
684080,4.409577,-4.27361,-2.671664
684082,4.411664,-4.275809,-2.670271
684085,4.411664,-4.275809,-2.670271
684087,4.412952,-4.277549,-2.667191
684090,4.412952,-4.277549,-2.667191
684092,4.413396,-4.278236,-2.666016
684095,4.414195,-4.279335,-2.664915
684097,4.414195,-4.279335,-2.664915
684100,4.415392,-4.281028,-2.663298
684102,4.418452,-4.284366,-2.662196
684105,4.418452,-4.284366,-2.662196
684107,4.420978,-4.287199,-2.66124
684110,4.420978,-4.287199,-2.66124
684112,4.425008,-4.291172,-2.659989
684115,4.431024,-4.296919,-2.658149
684118,4.431024,-4.296919,-2.658149
684121,4.424255,-4.295232,-2.653137
684123,4.41894,-4.293864,-2.649224
684126,4.41894,-4.293864,-2.649224
684128,4.4062,-4.287565,-2.642566
684131,4.4062,-4.287565,-2.642566
684133,4.399438,-4.283315,-2.639823
684136,4.393915,-4.279335,-2.63886
684138,4.393915,-4.279335,-2.63886
684141,4.389499,-4.276221,-2.638043
684143,4.386464,-4.274893,-2.638934
684146,4.386464,-4.274893,-2.638934
684148,4.386866,-4.275855,-2.64012
684151,4.386866,-4.275855,-2.64012
684153,4.391641,-4.280799,-2.643528
684156,4.395474,-4.284914,-2.646193
684158,4.395474,-4.284914,-2.646193
684162,4.403933,-4.292815,-2.652768
684164,4.408245,-4.296691,-2.656307
684167,4.408245,-4.296691,-2.656307
684169,4.411709,-4.299789,-2.659106
684172,4.411709,-4.299789,-2.659106
684174,4.416856,-4.302385,-2.669025
684177,4.420003,-4.303887,-2.675325
684179,4.420003,-4.303887,-2.675325
684182,4.422661,-4.30507,-2.680368
684184,4.424742,-4.306071,-2.684382
684187,4.424742,-4.306071,-2.684382
684189,4.43204,-4.310026,-2.694934
684192,4.43204,-4.310026,-2.694934
684194,4.434735,-4.311434,-2.698781
684197,4.442854,-4.316927,-2.707977
684199,4.442854,-4.316927,-2.707977
684203,4.447525,-4.320646,-2.712816
684205,4.447525,-4.320646,-2.712816
684208,4.451311,-4.323592,-2.716709
684210,4.454434,-4.325992,-2.719806
684212,4.460849,-4.332462,-2.723186
684215,4.46594,-4.337657,-2.725844
684217,4.471243,-4.343027,-2.729074
684220,4.471243,-4.343027,-2.729074
684222,4.475403,-4.347444,-2.731583
684225,4.475403,-4.347444,-2.731583
684227,4.478816,-4.350912,-2.73366
684230,4.487291,-4.360624,-2.735593
684232,4.487291,-4.360624,-2.735593
684235,4.491611,-4.366504,-2.735021
684237,4.495098,-4.371256,-2.734806
684240,4.495098,-4.371256,-2.734806
684242,4.497886,-4.375019,-2.734448
684246,4.497886,-4.375019,-2.734448
684248,4.502848,-4.383561,-2.730938
684251,4.504588,-4.386687,-2.729648
684253,4.504588,-4.386687,-2.729648
684256,4.541786,-4.431996,-2.720021
684258,4.55591,-4.449198,-2.716277
684261,4.55591,-4.449198,-2.716277
684263,4.57179,-4.469053,-2.708049
684266,4.57179,-4.469053,-2.708049
684268,4.585266,-4.485807,-2.701101
684271,4.592352,-4.49954,-2.680441
684273,4.592352,-4.49954,-2.680441
684276,4.596019,-4.505761,-2.672543
684278,4.592309,-4.505761,-2.661681
684281,4.592309,-4.505761,-2.661681
684283,4.584455,-4.50537,-2.63923
684286,4.584455,-4.50537,-2.63923
684289,4.580736,-4.505196,-2.628007
684292,4.578383,-4.505761,-2.61898
684294,4.578383,-4.505761,-2.61898
684297,4.561753,-4.500628,-2.593821
684299,4.55664,-4.499671,-2.584599
684302,4.55664,-4.499671,-2.584599
684304,4.569904,-4.520084,-2.575875
684307,4.569904,-4.520084,-2.575875
684309,4.581719,-4.537859,-2.568569
684312,4.610317,-4.581206,-2.552286
684314,4.610317,-4.581206,-2.552286
684317,4.622452,-4.599044,-2.54599
684319,4.635824,-4.619316,-2.537211
684322,4.635824,-4.619316,-2.537211
684324,4.658628,-4.65299,-2.523519
684327,4.658628,-4.65299,-2.523519
684329,4.670512,-4.670135,-2.514038
684333,4.681321,-4.68542,-2.506006
684335,4.681321,-4.68542,-2.506006
684338,4.696611,-4.709731,-2.490258
684340,4.696611,-4.709731,-2.490258
684342,4.703821,-4.720574,-2.483883
684345,4.708941,-4.73073,-2.47433
684347,4.708941,-4.73073,-2.47433
684350,4.71908,-4.748956,-2.459493
684352,4.726256,-4.75481,-2.458458
684355,4.726256,-4.75481,-2.458458
684357,4.73946,-4.766825,-2.45575
684360,4.73946,-4.766825,-2.45575
684362,4.748337,-4.775078,-2.453118
684365,4.763413,-4.789907,-2.448246
684367,4.763413,-4.789907,-2.448246
684370,4.780122,-4.808805,-2.439917
684372,4.794689,-4.825438,-2.432606
684376,4.794689,-4.825438,-2.432606
684378,4.820971,-4.866793,-2.400451
684381,4.820971,-4.866793,-2.400451
684383,4.833348,-4.890084,-2.378663
684386,4.855307,-4.921871,-2.348437
684388,4.855307,-4.921871,-2.348437
684391,4.864659,-4.935307,-2.336238
684393,4.87331,-4.947716,-2.325742
684396,4.87331,-4.947716,-2.325742
684398,4.89529,-4.975711,-2.300782
684401,4.89529,-4.975711,-2.300782
684403,4.904246,-4.987824,-2.285076
684406,4.920756,-5.010124,-2.259061
684408,4.920756,-5.010124,-2.259061
684411,4.92398,-5.023168,-2.230112
684413,4.93205,-5.046749,-2.183551
684417,4.93205,-5.046749,-2.183551
684419,4.934155,-5.059466,-2.155767
684422,4.934155,-5.059466,-2.155767
684424,4.937093,-5.071573,-2.131205
684427,4.94427,-5.096468,-2.081401
684429,4.94427,-5.096468,-2.081401
684432,4.948429,-5.109024,-2.056618
684434,4.960884,-5.13721,-2.006133
684437,4.960884,-5.13721,-2.006133
684439,4.968421,-5.151949,-1.981298
684442,4.968421,-5.151949,-1.981298
684444,4.98806,-5.183759,-1.932696
684447,4.999789,-5.20093,-1.908341
684449,4.999789,-5.20093,-1.908341
684452,5.010906,-5.217029,-1.886059
684454,5.053422,-5.271133,-1.832589
684457,5.053422,-5.271133,-1.832589
684460,5.071341,-5.293872,-1.809916
684463,5.071341,-5.293872,-1.809916
684465,5.132975,-5.364944,-1.757026
684468,5.158638,-5.394704,-1.733929
684470,5.158638,-5.394704,-1.733929
684472,5.241946,-5.48873,-1.684699
684475,5.241946,-5.48873,-1.684699
684477,5.277078,-5.528504,-1.661893
684480,5.340637,-5.601857,-1.608516
684482,5.340637,-5.601857,-1.608516
684485,5.367976,-5.633326,-1.584738
684487,5.389652,-5.663305,-1.554945
684490,5.389652,-5.663305,-1.554945
684492,5.428056,-5.71666,-1.497633
684495,5.428056,-5.71666,-1.497633
684497,5.445933,-5.741361,-1.469936
684500,5.463608,-5.765004,-1.443878
684503,5.463608,-5.765004,-1.443878
684506,5.409504,-5.722589,-1.410143
684508,5.392778,-5.710897,-1.39311
684511,5.392778,-5.710897,-1.39311
684513,5.306294,-5.631063,-1.36616
684516,5.306294,-5.631063,-1.36616
684518,5.276632,-5.604585,-1.351905
684521,5.176535,-5.511675,-1.331633
684523,5.176535,-5.511675,-1.331633
684526,5.14068,-5.479189,-1.320121
684528,5.088427,-5.431051,-1.299503
684531,5.088427,-5.431051,-1.299503
684533,5.069602,-5.414392,-1.288312
684536,5.069602,-5.414392,-1.288312
684538,5.17699,-5.518534,-1.236856
684541,5.219057,-5.559928,-1.212892
684544,5.219057,-5.559928,-1.212892
684547,5.300198,-5.637881,-1.182667
684549,5.42755,-5.760991,-1.129346
684552,5.42755,-5.760991,-1.129346
684554,5.500179,-5.830354,-1.102694
684557,5.500179,-5.830354,-1.102694
684559,5.618206,-5.943892,-1.05332
684562,5.661401,-5.985596,-1.034387
684564,5.661401,-5.985596,-1.034387
684567,5.735144,-6.057316,-0.9975998
684569,5.765174,-6.086373,-0.98437
684572,5.765174,-6.086373,-0.98437
684574,5.819149,-6.138971,-0.9567486
684577,5.819149,-6.138971,-0.9567486
