time,turnedAngle,pitchAngle,yawAngle
5,0,0,0
253187,0,0,0
253190,0,0,0
253192,0,0,0
253195,0,0,0
253187,0,0,0
253190,0,0,0
253192,0,0,0
253195,0,0,0
0,0,0,0
1,0,0,0
2,0,0,0
4,0,0,0
5,0,0,0
7,0,0,0
8,0,0,0
10,0,0,0
12,0,0,0
14,0,0,0
16,0,0,0
19,0,0,0
21,0,0,0
23,0,0,0
25,0,0,0
27,0,0,0
29,0,0,0
32,0,0,0
34,0,0,0
36,0,0,0
38,0,0,0
40,0,0,0
43,0,0,0
46,0,0,0
48,0,0,0
50,0,0,0
52,0,0,0
54,0,0,0
56,0,0,0
58,0,0,0
61,0,0,0
63,0,0,0
65,0,0,0
67,0,0,0
69,0,0,0
71,0,0,0
74,0,0,0
76,0,0,0
78,0,0,0
80,0,0,0
82,0,0,0
84,0,0,0
88,0,0,0
90,0,0,0
92,0,0,0
94,0,0,0
96,0,0,0
98,0,0,0
100,0,0,0
103,0,0,0
105,0,0,0
107,0,0,0
109,0,0,0
112,0,0,0
114,0,0,0
116,0,0,0
118,0,0,0
121,0,0,0
123,0,0,0
125,0,0,0
128,0,0,0
131,0,0,0
133,0,0,0
135,0,0,0
137,0.06852804,0.02797646,-0.08846933
140,0.06852804,0.02797646,-0.08846933
142,0.1643245,0.07132626,-0.1791368
144,0.1643245,0.07132626,-0.1791368
146,0.1988102,0.08392937,-0.2112177
149,0.2298502,0.09891172,-0.2382111
151,0.2298502,0.09891172,-0.2382111
153,0.2733977,0.1170339,-0.2790645
155,0.2733977,0.1170339,-0.2790645
158,0.2733977,0.09891172,-0.2866737
160,0.2733977,0.09891172,-0.2866737
162,0.2733977,0.08622923,-0.2927522
164,0.2748253,0.07661668,-0.2987072
166,0.2733977,0.07401875,-0.3000144
169,0.2733977,0.07132626,-0.301316
172,0.2733977,0.07132626,-0.301316
174,0.2733977,0.07401875,-0.302612
176,0.2733977,0.07401875,-0.302612
179,0.2762456,-0.09065409,-0.3045456
181,0.2762456,-0.09065409,-0.3045456
183,0.2914124,-0.1101434,-0.3146578
185,0.3064671,-0.1297215,-0.3232465
188,0.3064671,-0.1297215,-0.3232465
190,0.3220336,-0.1519511,-0.3304307
192,0.3220336,-0.1519511,-0.3304307
194,0.3626169,-0.199792,-0.3505445
197,0.3626169,-0.199792,-0.3505445
199,0.3815487,-0.220287,-0.3599087
201,0.3815487,-0.220287,-0.3599087
203,0.3995845,-0.2398483,-0.3685048
206,0.416371,-0.2586879,-0.3753442
208,0.416371,-0.2586879,-0.3753442
210,0.4410186,-0.2846186,-0.386643
212,0.4410186,-0.2846186,-0.386643
216,0.4532716,-0.2987072,-0.3906707
218,0.4532716,-0.2987072,-0.3906707
220,0.464781,-0.3134116,-0.393167
222,0.4825446,-0.3351346,-0.3961419
225,0.4825446,-0.3351346,-0.3961419
227,0.4897892,-0.3443497,-0.3976209
229,0.4897892,-0.3443497,-0.3976209
231,0.4977152,-0.3538778,-0.3995845
233,0.4977152,-0.3538778,-0.3995845
236,0.5000685,-0.3555328,-0.4005627
238,0.5000685,-0.3555328,-0.4005627
240,0.5078341,-0.3636945,-0.403483
242,0.5047422,-0.3593647,-0.403483
245,0.5047422,-0.3593647,-0.403483
247,0.5039662,-0.3577275,-0.4029978
249,0.4961402,-0.3477423,-0.4020255
251,0.4913847,-0.3414966,-0.4010509
254,0.4913847,-0.3414966,-0.4010509
257,0.4889896,-0.3380413,-0.4010509
259,0.4788812,-0.324455,-0.3986039
261,0.4788812,-0.324455,-0.3986039
264,0.4668813,-0.3083766,-0.3961419
266,0.4668813,-0.3083766,-0.3961419
268,0.4436728,-0.2797648,-0.3891652
270,0.4436728,-0.2797648,-0.3891652
273,0.4265846,-0.2579304,-0.3841043
275,0.4265846,-0.2579304,-0.3841043
277,0.4059006,-0.2255535,-0.3800071
279,0.3995845,-0.2148914,-0.3779418
282,0.3995845,-0.2148914,-0.3779418
284,0.3946573,-0.2065338,-0.3779418
286,0.3946573,-0.2065338,-0.3779418
288,0.3891652,-0.1948336,-0.3769049
291,0.3891652,-0.1948336,-0.3769049
293,0.3871488,-0.1928145,-0.3763854
295,0.3871488,-0.1928145,-0.3763854
297,0.386643,-0.1907741,-0.3758652
300,0.3906707,-0.2093567,-0.3674413
303,0.3906707,-0.2093567,-0.3674413
305,0.393167,-0.2176059,-0.3642322
307,0.393167,-0.2176059,-0.3642322
309,0.3981127,-0.2332305,-0.3593647
312,0.3981127,-0.2332305,-0.3593647
314,0.4087828,-0.2586879,-0.3516591
316,0.4015385,-0.2564087,-0.343781
318,0.4015385,-0.2564087,-0.343781
321,0.3961419,-0.2556444,-0.3368816
323,0.3961419,-0.2556444,-0.3368816
325,0.3881583,-0.2525642,-0.3280534
327,0.3881583,-0.2525642,-0.3280534
330,0.3763854,-0.2486604,-0.3146578
332,0.3763854,-0.2486604,-0.3146578
334,0.386643,-0.2661444,-0.3134116
336,0.3966355,-0.2804634,-0.3121605
339,0.3966355,-0.2804634,-0.3121605
342,0.4279585,-0.3256589,-0.3102743
344,0.4279585,-0.3256589,-0.3102743
346,0.4410186,-0.3432113,-0.3090104
349,0.4410186,-0.3432113,-0.3090104
351,0.4558544,-0.3626169,-0.3077414
353,0.4558544,-0.3626169,-0.3077414
355,0.4813265,-0.3956476,-0.3058279
357,0.4909863,-0.4073442,-0.3051875
360,0.4909863,-0.4073442,-0.3051875
362,0.5000685,-0.4187142,-0.3045456
364,0.5000685,-0.4187142,-0.3045456
366,0.4821389,-0.3835945,-0.3220336
369,0.4821389,-0.3835945,-0.3220336
371,0.463094,-0.3471792,-0.3363003
373,0.4414621,-0.2954137,-0.3571801
375,0.4414621,-0.2954137,-0.3571801
378,0.4219727,-0.2193969,-0.3891652
380,0.4219727,-0.2193969,-0.3891652
382,0.4284154,-0.234068,-0.3881583
385,0.4284154,-0.234068,-0.3881583
388,0.4405747,-0.2571706,-0.386643
390,0.4405747,-0.2571706,-0.386643
392,0.4387946,-0.2349025,-0.3990945
394,0.4387946,-0.2148914,-0.410693
397,0.4387946,-0.2148914,-0.410693
399,0.4392403,-0.199792,-0.4196478
401,0.4392403,-0.199792,-0.4196478
403,0.4432315,-0.1480375,-0.4467493
406,0.4432315,-0.1480375,-0.4467493
408,0.4458725,-0.1027921,-0.463094
410,0.4458725,-0.1027921,-0.463094
412,0.4528397,-0.0656106,-0.477244
415,0.4618246,-0.03426402,-0.4897892
417,0.4618246,-0.03426402,-0.4897892
419,0.4817329,0.03426402,-0.5101407
421,0.4817329,0.03426402,-0.5101407
423,0.4905876,0.05595291,-0.5169988
427,0.4905876,0.05595291,-0.5169988
429,0.5008504,0.08156469,-0.5233933
431,0.5105241,0.1027921,-0.5293413
433,0.5105241,0.1027921,-0.5293413
436,0.53008,0.1467098,-0.5388666
438,0.53008,0.1467098,-0.5388666
440,0.5399548,0.165511,-0.5435666
442,0.5399548,0.165511,-0.5435666
445,0.5500081,0.1866263,-0.5482264
447,0.5500081,0.1866263,-0.5482264
449,0.5888388,0.2548778,-0.5616257
451,0.6158028,0.2973941,-0.5702693
454,0.6158028,0.2973941,-0.5702693
456,0.6416347,0.3351346,-0.5781073
458,0.6416347,0.3351346,-0.5781073
460,0.6641131,0.3663747,-0.5861744
463,0.6641131,0.3663747,-0.5861744
465,0.6752167,0.3805216,-0.589503
467,0.6752167,0.3805216,-0.589503
470,0.6786853,0.3846134,-0.5911604
473,0.6847132,0.392669,-0.5934729
475,0.6847132,0.392669,-0.5934729
477,0.6878495,0.3966355,-0.5944612
479,0.6878495,0.3966355,-0.5944612
482,0.6926687,0.4020255,-0.5964329
484,0.6926687,0.4020255,-0.5964329
486,0.7060983,0.4102162,-0.6068404
488,0.719005,0.4191812,-0.616438
490,0.7346201,0.429328,-0.628073
493,0.7491269,0.4392403,-0.6385778
495,0.7491269,0.4392403,-0.6385778
497,0.7628451,0.4498048,-0.6483091
499,0.7628451,0.4498048,-0.6483091
502,0.7875819,0.4677188,-0.6652907
504,0.7875819,0.4677188,-0.6652907
506,0.798929,0.4764233,-0.6728944
508,0.8081825,0.4829499,-0.6798376
512,0.8081825,0.4829499,-0.6798376
514,0.8235324,0.4921804,-0.6918207
516,0.8235324,0.4921804,-0.6918207
518,0.829923,0.4957456,-0.6974546
521,0.829923,0.4957456,-0.6974546
523,0.829923,0.4957456,-0.6974546
525,0.829923,0.4957456,-0.6974546
527,0.829923,0.4957456,-0.6974546
530,0.8386015,0.501241,-0.7038778
532,0.8386015,0.501241,-0.7038778
534,0.8504184,0.5047422,-0.7157319
536,0.8504184,0.5047422,-0.7157319
539,0.8566085,0.5082192,-0.7209076
541,0.8566085,0.5082192,-0.7209076
543,0.8600281,0.5066768,-0.7257769
545,0.8681804,0.5089886,-0.7348864
548,0.8681804,0.5089886,-0.7348864
550,0.8686311,0.5047422,-0.7383398
552,0.8686311,0.5047422,-0.7383398
555,0.8699816,0.5020211,-0.7415132
557,0.8699816,0.5020211,-0.7415132
560,0.8690815,0.4957456,-0.7451985
562,0.8690815,0.4957456,-0.7451985
564,0.8695317,0.4913847,-0.7488656
566,0.8684058,0.4792896,-0.7548515
569,0.8684058,0.4792896,-0.7548515
571,0.8690815,0.4768338,-0.7574393
573,0.8690815,0.4768338,-0.7574393
575,0.8688563,0.4718838,-0.760533
578,0.8688563,0.4718838,-0.760533
580,0.8695317,0.4689721,-0.7628451
582,0.8708809,0.4673002,-0.7656615
584,0.8708809,0.4673002,-0.7656615
587,0.8625273,0.4609765,-0.7597608
589,0.8625273,0.4609765,-0.7597608
591,0.85638,0.456712,-0.7553698
593,0.85638,0.456712,-0.7553698
596,0.8409316,0.4480613,-0.7423044
599,0.8409316,0.4480613,-0.7423044
601,0.8322775,0.4423477,-0.7354187
603,0.8259051,0.4387946,-0.7303458
606,0.8259051,0.4387946,-0.7303458
608,0.8127698,0.4311472,-0.7200928
610,0.8127698,0.4311472,-0.7200928
612,0.8089085,0.4288719,-0.7165515
615,0.8089085,0.4288719,-0.7165515
617,0.8045425,0.4270431,-0.7127182
619,0.8045425,0.4270431,-0.7127182
621,0.7994187,0.4265846,-0.7074825
623,0.8079404,0.4489339,-0.7024865
626,0.8079404,0.4489339,-0.7024865
628,0.8156537,0.4685547,-0.6988559
630,0.8156537,0.4685547,-0.6988559
632,0.8232948,0.4853748,-0.6960504
635,0.8232948,0.4853748,-0.6960504
637,0.82377,0.4909863,-0.6921035
640,0.8204377,0.4881886,-0.6901216
642,0.8204377,0.4881886,-0.6901216
645,0.8182884,0.4869847,-0.6889865
647,0.8182884,0.4869847,-0.6889865
649,0.8175707,0.4957456,-0.6815624
651,0.8175707,0.4957456,-0.6815624
654,0.8187665,0.5035778,-0.6766641
656,0.8187665,0.5035778,-0.6766641
658,0.8289794,0.5248867,-0.6726035
660,0.8474219,0.5605795,-0.667053
663,0.8474219,0.5605795,-0.667053
665,0.8513383,0.5702693,-0.6638185
667,0.8513383,0.5702693,-0.6638185
669,0.8556943,0.5791218,-0.661456
672,0.8556943,0.5791218,-0.661456
674,0.8600281,0.5881739,-0.659382
676,0.8600281,0.5881739,-0.659382
678,0.8294513,0.5453635,-0.6567059
681,0.8247196,0.5410409,-0.6543178
684,0.8247196,0.5410409,-0.6543178
686,0.8216294,0.5385033,-0.652221
688,0.8216294,0.5385033,-0.652221
690,0.7890712,0.4981082,-0.6434618
693,0.7890712,0.4981082,-0.6434618
695,0.7648944,0.4656223,-0.6376578
697,0.745461,0.4401304,-0.6327289
699,0.745461,0.4401304,-0.6327289
702,0.7008132,0.3743001,-0.6230683
704,0.7008132,0.3743001,-0.6230683
706,0.680988,0.343781,-0.6183397
708,0.680988,0.343781,-0.6183397
711,0.6652907,0.3183671,-0.6148488
713,0.6652907,0.3183671,-0.6148488
715,0.6507192,0.2887141,-0.6135744
717,0.6489125,0.2804634,-0.615167
720,0.6489125,0.2804634,-0.615167
722,0.6467983,0.2733977,-0.616438
724,0.6467983,0.2733977,-0.616438
727,0.6635236,0.2880355,-0.628073
730,0.6635236,0.2880355,-0.628073
732,0.6693957,0.2934199,-0.6318005
734,0.6783969,0.3019647,-0.6376578
736,0.6783969,0.3019647,-0.6376578
739,0.6855699,0.3090104,-0.6425489
741,0.6855699,0.3090104,-0.6425489
743,0.6966124,0.3214254,-0.6480073
745,0.6966124,0.3214254,-0.6480073
748,0.7002546,0.3256589,-0.6504185
750,0.7002546,0.3256589,-0.6504185
752,0.7027649,0.3280534,-0.6516207
754,0.7052664,0.3304307,-0.6531205
756,0.7052664,0.3304307,-0.6531205
759,0.7058211,0.3316129,-0.65342
761,0.7058211,0.3316129,-0.65342
763,0.7060983,0.3316129,-0.65342
765,0.7060983,0.3316129,-0.65342
769,0.7060983,0.3322025,-0.6531205
771,0.7060983,0.3322025,-0.6531205
773,0.7055438,0.3333784,-0.652521
775,0.7072059,0.3351346,-0.652521
778,0.7072059,0.3351346,-0.652521
780,0.7080355,0.3380413,-0.652221
782,0.7080355,0.3380413,-0.652221
784,0.7102429,0.343781,-0.651921
787,0.7102429,0.343781,-0.651921
789,0.711069,0.3454843,-0.6516207
791,0.7367479,0.3774237,-0.6635236
793,0.7367479,0.3774237,-0.6635236
796,0.776825,0.4247459,-0.6812752
798,0.776825,0.4247459,-0.6812752
800,0.8057577,0.4584226,-0.6937978
802,0.8057577,0.4584226,-0.6937978
805,0.829923,0.4861804,-0.7041557
807,0.829923,0.4861804,-0.7041557
809,0.881156,0.5435666,-0.7246976
812,0.901572,0.5664824,-0.7327532
814,0.901572,0.5664824,-0.7327532
817,0.923233,0.5901666,-0.7415132
819,0.923233,0.5901666,-0.7415132
821,0.9589957,0.629007,-0.7558876
823,0.9589957,0.629007,-0.7558876
826,0.9747815,0.646193,-0.7618184
828,0.9747815,0.646193,-0.7618184
830,0.9887336,0.6608641,-0.7671934
832,1.003467,0.6772422,-0.7727842
835,1.003467,0.6772422,-0.7727842
837,1.027934,0.7038778,-0.7815963
839,1.027934,0.7038778,-0.7815963
841,1.037975,0.7138155,-0.7858408
844,1.037975,0.7138155,-0.7858408
846,1.047171,0.7233464,-0.7900625
848,1.059987,0.733287,-0.7979487
850,1.059987,0.733287,-0.7979487
854,1.064592,0.7359507,-0.8021067
856,1.064592,0.7359507,-0.8021067
858,1.064224,0.7322189,-0.8052719
860,1.064224,0.7322189,-0.8052719
863,1.06496,0.7300779,-0.8081825
865,1.06496,0.7300779,-0.8081825
867,1.063856,0.7217214,-0.8144533
869,1.062384,0.7165515,-0.8175707
872,1.062384,0.7165515,-0.8175707
874,1.058879,0.7074825,-0.8209146
876,1.058879,0.7074825,-0.8209146
878,1.055732,0.697174,-0.826142
880,1.055732,0.697174,-0.826142
883,1.061278,0.711894,-0.8209146
885,1.061278,0.711894,-0.8209146
887,1.066979,0.7249676,-0.8166127
889,1.04605,0.708588,-0.8038125
892,1.04605,0.708588,-0.8038125
894,1.029646,0.6954879,-0.7932757
897,1.029646,0.6954879,-0.7932757
899,1.017218,0.6923862,-0.7795909
902,1.017218,0.6923862,-0.7795909
904,1.018372,0.6985759,-0.7750598
906,1.019908,0.7047113,-0.7715172
908,1.019908,0.7047113,-0.7715172
911,0.9805858,0.6620474,-0.7574393
913,0.9805858,0.6620474,-0.7574393
915,0.953881,0.6293179,-0.7506924
917,0.953881,0.6293179,-0.7506924
920,0.9325122,0.6026341,-0.7446731
922,0.9325122,0.6026341,-0.7446731
924,0.9147157,0.5808088,-0.7396637
926,0.8607104,0.5260038,-0.7140896
929,0.8607104,0.5260038,-0.7140896
931,0.8400003,0.5055169,-0.7038778
933,0.8400003,0.5055169,-0.7038778
935,0.8076981,0.4545648,-0.699975
939,0.8076981,0.4545648,-0.699975
941,0.7548515,0.3609945,-0.6946434
943,0.7335538,0.3165179,-0.6929511
945,0.7335538,0.3165179,-0.6929511
947,0.7165515,0.2790645,-0.6909717
950,0.7165515,0.2790645,-0.6909717
952,0.7013714,0.2414744,-0.6889865
954,0.7013714,0.2414744,-0.6889865
956,0.6798376,0.183454,-0.6847132
959,0.6798376,0.183454,-0.6847132
961,0.6720214,0.1607126,-0.6824232
963,0.6652907,0.1398823,-0.6798376
965,0.6652907,0.1398823,-0.6798376
968,0.6507192,0.1008706,-0.6723125
970,0.6507192,0.1008706,-0.6723125
972,0.6452838,0.08392937,-0.6688108
974,0.6452838,0.08392937,-0.6688108
977,0.6394964,0.07661668,-0.6641131
979,0.6394964,0.07661668,-0.6641131
982,0.6308707,0.08156469,-0.6549156
984,0.6274496,0.09065409,-0.6504185
987,0.6274496,0.09065409,-0.6504185
989,0.6246366,0.09691329,-0.6464956
991,0.6246366,0.09691329,-0.6464956
993,0.6308707,0.1519511,-0.6425489
996,0.6308707,0.1519511,-0.6425489
998,0.633656,0.1701742,-0.6407191
1000,0.6480073,0.2167048,-0.6416347
1002,0.6480073,0.2167048,-0.6416347
1005,0.6617518,0.2548778,-0.6419396
1007,0.6617518,0.2548778,-0.6419396
1009,0.6474031,0.2631872,-0.6233823
1012,0.6474031,0.2631872,-0.6233823
1014,0.6413296,0.2661444,-0.615485
1016,0.6626383,0.3292442,-0.6081289
1019,0.6626383,0.3292442,-0.6081289
1021,0.7033216,0.4256662,-0.5961047
1024,0.7033216,0.4256662,-0.5961047
1027,0.7238871,0.4837596,-0.5757331
1029,0.7444103,0.533392,-0.5588315
1031,0.7444103,0.533392,-0.5588315
1034,0.8829308,0.7370135,-0.5293413
1036,0.8829308,0.7370135,-0.5293413
1038,0.9433607,0.8163731,-0.5177552
1041,0.9433607,0.8163731,-0.5177552
1043,1.030786,0.9211111,-0.5082192
1045,1.107475,1.010463,-0.4996771
1048,1.107475,1.010463,-0.4996771
1050,1.196649,1.120823,-0.4689721
1052,1.196649,1.120823,-0.4689721
1054,1.218204,1.15233,-0.4484978
1057,1.218204,1.15233,-0.4484978
1059,1.234955,1.180017,-0.4215088
1061,1.272263,1.233687,-0.3774237
1064,1.272263,1.233687,-0.3774237
1067,1.239858,1.201708,-0.3711503
1069,1.239858,1.201708,-0.3711503
1072,1.216114,1.178856,-0.365305
1074,1.194357,1.155213,-0.3674413
1076,1.194357,1.155213,-0.3674413
1079,1.169356,1.128999,-0.3663747
1081,1.169356,1.128999,-0.3663747
1083,1.153179,1.110827,-0.3695653
1086,1.153179,1.110827,-0.3695653
1088,1.141924,1.098248,-0.3700944
1090,1.134704,1.090381,-0.3695653
1093,1.134704,1.090381,-0.3695653
1095,1.238279,1.183495,-0.410693
1097,1.238279,1.183495,-0.410693
1100,1.299052,1.237962,-0.4361108
1102,1.351905,1.286183,-0.456712
1104,1.351905,1.286183,-0.456712
1107,1.435723,1.362718,-0.4897892
1110,1.435723,1.362718,-0.4897892
1112,1.469537,1.393531,-0.5031891
1115,1.469537,1.393531,-0.5031891
1117,1.488589,1.414577,-0.5004597
1119,1.525981,1.455756,-0.4945601
1122,1.525981,1.455756,-0.4945601
1124,1.535951,1.469404,-0.4849715
1126,1.535951,1.469404,-0.4849715
1129,1.547502,1.483849,-0.4760123
1131,1.547502,1.483849,-0.4760123
1133,1.535186,1.474588,-0.464781
1136,1.517751,1.457502,-0.4609765
1138,1.517751,1.457502,-0.4609765
1140,1.475384,1.414024,-0.4588492
1142,1.475384,1.414024,-0.4588492
1145,1.442522,1.380552,-0.4558544
1147,1.379133,1.315517,-0.450674
1149,1.379133,1.315517,-0.450674
1153,1.348862,1.284509,-0.4480613
1155,1.348862,1.284509,-0.4480613
1157,1.313731,1.248352,-0.4463111
1160,1.313731,1.248352,-0.4463111
1162,1.285879,1.219489,-0.4445539
1164,1.26393,1.196649,-0.4423477
1167,1.26393,1.196649,-0.4423477
1169,1.259121,1.189761,-0.4480613
1171,1.259121,1.189761,-0.4480613
1174,1.255853,1.184817,-0.4519747
1176,1.256321,1.182171,-0.4601268
1178,1.256321,1.182171,-0.4601268
1181,1.256943,1.182006,-0.463094
1183,1.256943,1.182006,-0.463094
1185,1.25881,1.182998,-0.4660423
1188,1.25881,1.182998,-0.4660423
1190,1.263465,1.186797,-0.4698059
1192,1.266096,1.189432,-0.4706381
1196,1.266096,1.189432,-0.4706381
1198,1.281916,1.202033,-0.4821389
1200,1.281916,1.202033,-0.4821389
1203,1.295582,1.213214,-0.4921804
1205,1.307161,1.222854,-0.5004597
1207,1.307161,1.222854,-0.5004597
1210,1.344357,1.255542,-0.5203939
1212,1.344357,1.255542,-0.5203939
1214,1.337937,1.252577,-0.5101407
1217,1.337937,1.252577,-0.5101407
1219,1.333248,1.250857,-0.5016313
1221,1.329721,1.249918,-0.4945601
1224,1.329721,1.249918,-0.4945601
1226,1.34712,1.274261,-0.4768338
1228,1.34712,1.274261,-0.4768338
1230,1.354797,1.284509,-0.4702222
1233,1.354797,1.284509,-0.4702222
1235,1.347846,1.282374,-0.4541341
1238,1.342755,1.281306,-0.4410186
1241,1.342755,1.281306,-0.4410186
1243,1.335448,1.278401,-0.4247459
1245,1.335448,1.278401,-0.4247459
1248,1.335448,1.278401,-0.4247459
1250,1.333248,1.281,-0.4083038
1252,1.333248,1.281,-0.4083038
1255,1.332074,1.283747,-0.3946573
1257,1.332074,1.283747,-0.3946573
1259,1.335741,1.291043,-0.3820612
1262,1.335741,1.291043,-0.3820612
1264,1.339253,1.297393,-0.3716771
1266,1.401373,1.358835,-0.382573
1269,1.401373,1.358835,-0.382573
1271,1.425327,1.382535,-0.3856296
1273,1.425327,1.382535,-0.3856296
1276,1.458979,1.414577,-0.3966355
1278,1.487537,1.441844,-0.4054182
1281,1.487537,1.441844,-0.4054182
1284,1.527134,1.481341,-0.4102162
1286,1.527134,1.481341,-0.4102162
1288,1.54345,1.497633,-0.4116447
1291,1.54345,1.497633,-0.4116447
1293,1.556077,1.511031,-0.4102162
1295,1.567854,1.523542,-0.4092611
1298,1.567854,1.523542,-0.4092611
1300,1.58659,1.543323,-0.4068635
1302,1.58659,1.543323,-0.4068635
1305,1.593973,1.551291,-0.4059006
1307,1.596917,1.554441,-0.4054182
1309,1.596917,1.554441,-0.4054182
1312,1.604131,1.561977,-0.4049353
1314,1.604131,1.561977,-0.4049353
1316,1.609003,1.566855,-0.4054182
1318,1.609003,1.566855,-0.4054182
1321,1.619187,1.577063,-0.4068635
1324,1.631229,1.590409,-0.4020255
1326,1.631229,1.590409,-0.4020255
1329,1.641991,1.6023,-0.3986039
1331,1.641991,1.6023,-0.3986039
1333,1.651616,1.612769,-0.3956476
1336,1.651616,1.612769,-0.3956476
1338,1.648651,1.608881,-0.3990945
1340,1.664011,1.625099,-0.3976209
1343,1.664011,1.625099,-0.3976209
1345,1.677714,1.639247,-0.3966355
1347,1.677714,1.639247,-0.3966355
1350,1.689918,1.652208,-0.3956476
1352,1.710407,1.67351,-0.3941611
1354,1.710407,1.67351,-0.3941611
1357,1.753793,1.718511,-0.3906707
1359,1.753793,1.718511,-0.3906707
1361,1.776191,1.7417,-0.3896677
1364,1.776191,1.7417,-0.3896677
1367,1.827456,1.795696,-0.3820612
1369,1.87158,1.841857,-0.3753442
1372,1.87158,1.841857,-0.3753442
1374,1.921525,1.894549,-0.3669084
1376,1.921525,1.894549,-0.3669084
1379,1.965032,1.940276,-0.3593647
1381,2.003204,1.980211,-0.3538778
1383,2.003204,1.980211,-0.3538778
1386,2.042964,2.021682,-0.3477423
1388,2.042964,2.021682,-0.3477423
1390,2.078861,2.058995,-0.3420692
1393,2.078861,2.058995,-0.3420692
1395,2.142745,2.125136,-0.3351346
1397,2.170876,2.15395,-0.3339648
1400,2.170876,2.15395,-0.3339648
1402,2.19642,2.180052,-0.332791
1404,2.19642,2.180052,-0.332791
1406,2.215937,2.20007,-0.3316129
1410,2.215937,2.20007,-0.3316129
1412,2.234496,2.218938,-0.3316129
1414,2.252293,2.237209,-0.3310224
1417,2.252293,2.237209,-0.3310224
1419,2.284991,2.270296,-0.3316129
1421,2.284991,2.270296,-0.3316129
1424,2.299336,2.284819,-0.3316129
1426,2.313423,2.29908,-0.3322025
1428,2.313423,2.29908,-0.3322025
1431,2.326751,2.312407,-0.332791
1433,2.326751,2.312407,-0.332791
1435,2.339837,2.325658,-0.3333784
1438,2.339837,2.325658,-0.3333784
1440,2.3531,2.339001,-0.3333784
1442,2.347687,2.332968,-0.3386196
1445,2.347687,2.332968,-0.3386196
1447,2.345101,2.329862,-0.343781
1449,2.345101,2.329862,-0.343781
1453,2.334142,2.318156,-0.3488659
1455,2.326836,2.310205,-0.3527702
1457,2.326836,2.310205,-0.3527702
1460,2.29661,2.277354,-0.3674413
1462,2.29661,2.277354,-0.3674413
1464,2.244197,2.219644,-0.3921704
1467,2.244197,2.219644,-0.3921704
1469,2.22123,2.194191,-0.403483
1471,2.203093,2.173849,-0.4130683
1474,2.203093,2.173849,-0.4130683
1476,2.184178,2.152496,-0.4233615
1478,2.184178,2.152496,-0.4233615
1481,2.157129,2.121726,-0.4387946
1483,2.14448,2.107193,-0.4463111
1485,2.14448,2.107193,-0.4463111
1488,2.134509,2.095458,-0.4524074
1490,2.134509,2.095458,-0.4524074
1492,2.127805,2.083375,-0.477244
1495,2.127805,2.083375,-0.477244
1498,2.125688,2.078955,-0.4869847
1500,2.126148,2.076694,-0.4992853
1502,2.126148,2.076694,-0.4992853
1505,2.126609,2.074809,-0.509757
1507,2.126609,2.074809,-0.509757
1509,2.124583,2.069898,-0.5215207
1512,2.124583,2.069898,-0.5215207
1514,2.122002,2.062699,-0.5395923
1516,2.118402,2.056903,-0.5475121
1519,2.118402,2.056903,-0.5475121
1521,2.1135,2.048704,-0.5598809
1523,2.1135,2.048704,-0.5598809
1526,2.108401,2.041718,-0.5661368
1528,2.104312,2.036055,-0.5712977
1530,2.104312,2.036055,-0.5712977
1533,2.122187,2.050709,-0.5851721
1536,2.122187,2.050709,-0.5851721
1538,2.139546,2.066586,-0.5931431
1541,2.139546,2.066586,-0.5931431
1543,2.166634,2.090034,-0.6097356
1545,2.177267,2.098724,-0.6173896
1548,2.177267,2.098724,-0.6173896
1550,2.181757,2.103289,-0.6183397
1552,2.181757,2.103289,-0.6183397
1555,2.184178,2.105614,-0.6189722
1557,2.18086,2.102638,-0.6170725
1559,2.18086,2.102638,-0.6170725
1562,2.176548,2.098818,-0.615167
1564,2.176548,2.098818,-0.615167
1566,2.125688,2.048991,-0.6055493
1569,2.125688,2.048991,-0.6055493
1571,2.086472,2.010421,-0.5983981
1573,1.981594,1.907828,-0.5767518
1575,1.981594,1.907828,-0.5767518
1579,1.921321,1.848962,-0.5637122
1581,1.921321,1.848962,-0.5637122
1583,1.803959,1.734381,-0.5395923
1586,1.747085,1.678997,-0.5278606
1588,1.747085,1.678997,-0.5278606
1590,1.647107,1.580287,-0.509757
1593,1.647107,1.580287,-0.509757
1595,1.603276,1.53697,-0.5035778
1597,1.603276,1.53697,-0.5035778
1600,1.565231,1.499069,-0.4977152
1602,1.493445,1.425601,-0.4937682
1604,1.493445,1.425601,-0.4937682
1607,1.463398,1.394935,-0.4917827
1609,1.430534,1.359843,-0.4925778
1611,1.400954,1.328691,-0.4933717
1614,1.400954,1.328691,-0.4933717
1616,1.373873,1.299503,-0.4949555
1618,1.326184,1.247881,-0.4961402
1622,1.326184,1.247881,-0.4961402
1624,1.304613,1.225092,-0.4965344
1626,1.304613,1.225092,-0.4965344
1629,1.266868,1.184156,-0.4977152
1631,1.255386,1.171863,-0.4969283
1633,1.255386,1.171863,-0.4969283
1636,1.23067,1.14603,-0.4957456
1638,1.23067,1.14603,-0.4957456
1640,1.217722,1.13246,-0.4941643
1643,1.217722,1.13246,-0.4941643
1645,1.20073,1.115222,-0.4921804
1647,1.191405,1.10553,-0.4909863
1650,1.191405,1.10553,-0.4909863
1652,1.192554,1.107828,-0.4885893
1654,1.192554,1.107828,-0.4885893
1657,1.189761,1.104821,-0.4873863
1659,1.198283,1.11452,-0.4849715
1661,1.198283,1.11452,-0.4849715
1664,1.198447,1.115222,-0.4841639
1667,1.198447,1.115222,-0.4841639
1669,1.220451,1.139523,-0.4813265
1671,1.220451,1.139523,-0.4813265
1674,1.22605,1.145688,-0.4801054
1676,1.301008,1.229874,-0.466462
1678,1.301008,1.229874,-0.466462
1681,1.327217,1.259121,-0.4605518
1683,1.327217,1.259121,-0.4605518
1685,1.37145,1.30731,-0.4558544
1688,1.37145,1.30731,-0.4558544
1690,1.386633,1.323821,-0.4541341
1692,1.387903,1.332221,-0.4288719
1695,1.387903,1.332221,-0.4288719
1697,1.387339,1.334275,-0.4196478
1699,1.387339,1.334275,-0.4196478
1702,1.387903,1.342318,-0.392669
1704,1.38748,1.344357,-0.382573
1707,1.38748,1.344357,-0.382573
1710,1.429576,1.38395,-0.3966355
1712,1.429576,1.38395,-0.3966355
1714,1.576443,1.532124,-0.410693
1717,1.576443,1.532124,-0.410693
1719,1.669764,1.627626,-0.4121198
1721,1.857832,1.82059,-0.4102162
1724,1.857832,1.82059,-0.4102162
1726,1.950236,1.915506,-0.4083038
1728,1.950236,1.915506,-0.4083038
1731,2.095832,2.064501,-0.4039677
1733,2.174209,2.144206,-0.4039677
1735,2.174209,2.144206,-0.4039677
1738,2.300782,2.272795,-0.403483
1740,2.300782,2.272795,-0.403483
1742,2.385155,2.358583,-0.4010509
1745,2.385155,2.358583,-0.4010509
1747,2.523751,2.499437,-0.3981127
1750,2.615839,2.593444,-0.3906707
1752,2.615839,2.593444,-0.3906707
1755,2.766686,2.747161,-0.3784592
1757,2.766686,2.747161,-0.3784592
1759,2.843173,2.825008,-0.3727285
1762,2.977101,2.960947,-0.3626169
1764,2.977101,2.960947,-0.3626169
1766,3.04549,3.02983,-0.3631561
1769,3.04549,3.02983,-0.3631561
1771,3.16601,3.151197,-0.3615361
1773,3.16601,3.151197,-0.3615361
1776,3.130878,3.114327,-0.3758652
1778,3.093071,3.073898,-0.3966355
1780,3.093071,3.073898,-0.3966355
1783,3.120356,3.100152,-0.4073442
1785,3.120356,3.100152,-0.4073442
1787,3.176689,3.155108,-0.4228991
1790,3.176689,3.155108,-0.4228991
1793,3.239786,3.217898,-0.4288719
1795,3.348079,3.32596,-0.4387946
1798,3.348079,3.32596,-0.4387946
1800,3.365808,3.341172,-0.4588492
1802,3.365808,3.341172,-0.4588492
1805,3.408754,3.380377,-0.4905876
1807,3.397362,3.366565,-0.5066768
1809,3.397362,3.366565,-0.5066768
1812,3.394768,3.360161,-0.5322903
1814,3.394768,3.360161,-0.5322903
1816,3.403351,3.365343,-0.5539077
1819,3.403351,3.365343,-0.5539077
1821,3.43091,3.387552,-0.5891711
1823,3.455021,3.408409,-0.6100564
1826,3.455021,3.408409,-0.6100564
1828,3.48026,3.430853,-0.6286958
1830,3.505931,3.454057,-0.6443735
1833,3.571167,3.518808,-0.6531205
1836,3.68185,3.628496,-0.6688108
1838,3.68185,3.628496,-0.6688108
1840,3.736331,3.682701,-0.6752167
1843,3.736331,3.682701,-0.6752167
1845,3.83257,3.778283,-0.6878495
1847,3.83257,3.778283,-0.6878495
1850,3.860163,3.804931,-0.6954879
1852,3.889071,3.832978,-0.7030433
1854,3.889071,3.832978,-0.7030433
1857,3.969212,3.90916,-0.7324861
1859,3.969212,3.90916,-0.7324861
1861,4.015175,3.952402,-0.751474
1864,4.015175,3.952402,-0.751474
1866,4.093473,4.027009,-0.7785863
1868,4.128819,4.061052,-0.7888232
1871,4.128819,4.061052,-0.7888232
1873,4.163442,4.093425,-0.804056
1875,4.163442,4.093425,-0.804056
1879,4.168989,4.097968,-0.8101172
1881,4.186849,4.114184,-0.8206762
1883,4.186849,4.114184,-0.8206762
1886,4.198153,4.124738,-0.8254311
1888,4.198153,4.124738,-0.8254311
1890,4.224707,4.148504,-0.8420942
1893,4.224707,4.148504,-0.8420942
1895,4.240578,4.162501,-0.8534044
1897,4.25892,4.179171,-0.8636609
1900,4.25892,4.179171,-0.8636609
1902,4.252845,4.160995,-0.9219604
1904,4.252845,4.160995,-0.9219604
1907,4.257401,4.160619,-0.9454328
1909,4.248607,4.146615,-0.9685385
1911,4.248607,4.146615,-0.9685385
1914,4.203701,4.100261,-0.9701535
1916,4.203701,4.100261,-0.9701535
1918,4.170445,4.06563,-0.972772
1922,4.170445,4.06563,-0.972772
1924,4.079191,3.970051,-0.9821809
1926,3.985411,3.871104,-0.9944565
1928,3.985411,3.871104,-0.9944565
1931,3.985411,3.871104,-0.9944565
1933,3.985411,3.871104,-0.9944565
1935,3.985411,3.871104,-0.9944565
1938,3.964473,3.845373,-1.01317
1940,3.964473,3.845373,-1.01317
1942,3.910462,3.788789,-1.018948
1945,3.910462,3.788789,-1.018948
1947,3.867764,3.743556,-1.025648
1949,3.867764,3.743556,-1.025648
1952,3.7831,3.648944,-1.054991
1954,3.753168,3.614655,-1.068262
1956,3.753168,3.614655,-1.068262
1959,3.718101,3.572538,-1.088405
1961,3.718101,3.572538,-1.088405
1964,3.689819,3.537786,-1.107298
1967,3.689819,3.537786,-1.107298
1969,3.621636,3.457797,-1.136772
1971,3.596626,3.427598,-1.14978
1974,3.596626,3.427598,-1.14978
1976,3.592487,3.41604,-1.172865
1978,3.58916,3.405996,-1.193046
1981,3.586486,3.397132,-1.211439
1983,3.686952,3.489305,-1.254918
1985,3.686952,3.489305,-1.254918
1988,3.724941,3.523312,-1.273646
1990,3.724941,3.523312,-1.273646
1992,3.748104,3.536624,-1.306412
1995,3.748104,3.536624,-1.306412
1997,3.785377,3.556884,-1.361138
1999,3.805909,3.569248,-1.388185
2002,3.805909,3.569248,-1.388185
2004,3.839869,3.58856,-1.435178
2007,3.839869,3.58856,-1.435178
2010,3.869182,3.615955,-1.448344
2012,3.894757,3.639111,-1.461659
2014,3.894757,3.639111,-1.461659
2016,3.944616,3.68828,-1.480019
2019,3.944616,3.68828,-1.480019
2021,3.965411,3.707818,-1.490428
2023,3.965411,3.707818,-1.490428
2026,4.003795,3.756349,-1.474854
2028,4.06722,3.833132,-1.457771
2030,4.06722,3.833132,-1.457771
2033,4.064956,3.832672,-1.455487
2035,4.064956,3.832672,-1.455487
2037,4.064908,3.833694,-1.455218
2040,4.035413,3.802306,-1.460855
2042,4.035413,3.802306,-1.460855
2044,4.011075,3.775639,-1.46567
2048,4.011075,3.775639,-1.46567
2050,3.908359,3.66073,-1.484772
2052,3.908359,3.66073,-1.484772
2055,3.824386,3.565241,-1.503111
2057,3.723048,3.451789,-1.521228
2059,3.723048,3.451789,-1.521228
2062,3.571387,3.27871,-1.553686
2064,3.571387,3.27871,-1.553686
2066,3.487734,3.182354,-1.571345
2069,3.487734,3.182354,-1.571345
2071,3.417588,3.100278,-1.588192
2073,3.275663,2.926968,-1.629909
2076,3.275663,2.926968,-1.629909
2078,3.206134,2.838694,-1.653392
2080,3.206134,2.838694,-1.653392
2083,3.183584,2.807492,-1.666831
2085,3.162731,2.778406,-1.680046
2087,3.14311,2.75065,-1.693273
2091,3.118725,2.713393,-1.712236
2093,3.118725,2.713393,-1.712236
2095,3.096171,2.678761,-1.730314
2098,3.096171,2.678761,-1.730314
2100,3.075553,2.646488,-1.747309
2102,3.039055,2.577774,-1.793078
2104,3.039055,2.577774,-1.793078
2107,3.035639,2.558797,-1.817254
2109,3.035639,2.558797,-1.817254
2111,3.030863,2.53937,-1.839518
2114,2.9817,2.43759,-1.904131
2116,2.9817,2.43759,-1.904131
2118,2.945835,2.365792,-1.943198
2121,2.945835,2.365792,-1.943198
2123,2.915509,2.302058,-1.97853
2125,2.915509,2.302058,-1.97853
2128,2.864779,2.175199,-2.056332
2130,2.840762,2.107565,-2.096859
2132,2.840762,2.107565,-2.096859
2136,2.82057,2.045453,-2.134876
2138,2.82057,2.045453,-2.134876
2140,2.800441,1.954646,-2.197578
2143,2.800441,1.954646,-2.197578
2145,2.796664,1.921016,-2.22396
2147,2.792742,1.887926,-2.24925
2150,2.792742,1.887926,-2.24925
2152,2.789305,1.829597,-2.298399
2154,2.789305,1.829597,-2.298399
2157,2.789305,1.803851,-2.321952
2159,2.791059,1.78224,-2.344434
2161,2.791059,1.78224,-2.344434
2164,2.793092,1.737988,-2.387041
2166,2.793092,1.737988,-2.387041
2168,2.797434,1.72499,-2.403955
2171,2.797434,1.72499,-2.403955
2173,2.80079,1.710063,-2.420992
2176,2.814108,1.693966,-2.450803
2179,2.814108,1.693966,-2.450803
2181,2.819112,1.682025,-2.466645
2183,2.819112,1.682025,-2.466645
2185,2.828401,1.700999,-2.46601
2188,2.836211,1.712351,-2.469103
2190,2.836211,1.712351,-2.469103
2192,2.860471,1.762808,-2.464501
2195,2.860471,1.762808,-2.464501
2197,2.869694,1.776741,-2.467359
2199,2.869694,1.776741,-2.467359
2202,2.881539,1.793733,-2.469341
2204,2.891237,1.804827,-2.473776
2206,2.891237,1.804827,-2.473776
2209,2.911949,1.839731,-2.473064
2211,2.911949,1.839731,-2.473064
2213,2.929442,1.866135,-2.475121
2216,2.949288,1.891758,-2.479229
2219,2.949288,1.891758,-2.479229
2221,2.979664,1.924476,-2.491908
2224,2.979664,1.924476,-2.491908
2226,2.991467,1.918161,-2.509051
2228,2.991467,1.918161,-2.509051
2231,3.001592,1.91121,-2.52538
2233,3.015841,1.92295,-2.533659
2235,3.015841,1.92295,-2.533659
2238,3.027956,1.931075,-2.542605
2240,3.027956,1.931075,-2.542605
2242,3.048766,1.931075,-2.56613
2245,3.048766,1.931075,-2.56613
2247,3.081975,1.927017,-2.60767
2249,3.102803,1.924069,-2.632621
2252,3.102803,1.924069,-2.632621
2254,3.121046,1.919996,-2.656086
2256,3.121046,1.919996,-2.656086
2259,3.152315,1.930872,-2.68358
2262,3.179277,1.938661,-2.708844
2264,3.179277,1.938661,-2.708844
2267,3.210223,1.953044,-2.733446
2269,3.210223,1.953044,-2.733446
2271,3.237005,1.964035,-2.756195
2273,3.237005,1.964035,-2.756195
2276,3.284735,1.985147,-2.795684
2278,3.306182,1.994981,-2.812995
2280,3.306182,1.994981,-2.812995
2283,3.327902,2.009058,-2.827224
2285,3.327902,2.009058,-2.827224
2287,3.347318,2.020133,-2.841107
2290,3.399494,2.06232,-2.870854
2292,3.399494,2.06232,-2.870854
2294,3.430054,2.08994,-2.886358
2297,3.430054,2.08994,-2.886358
2299,3.475868,2.157129,-2.890289
2301,3.475868,2.157129,-2.890289
2305,3.51647,2.213286,-2.89577
2307,3.557654,2.280618,-2.891914
2309,3.557654,2.280618,-2.891914
2312,3.563593,2.297718,-2.884798
2314,3.563593,2.297718,-2.884798
2316,3.551595,2.305032,-2.861839
2319,3.551595,2.305032,-2.861839
2321,3.549831,2.309189,-2.855608
2323,3.53003,2.275205,-2.858074
2326,3.53003,2.275205,-2.858074
2328,3.504869,2.225895,-2.865598
2330,3.504869,2.225895,-2.865598
2333,3.510173,2.244459,-2.855334
2335,3.522423,2.273914,-2.843517
2337,3.522423,2.273914,-2.843517
2340,3.528754,2.285676,-2.840693
2342,3.528754,2.285676,-2.840693
2344,3.534187,2.299165,-2.835866
2348,3.534187,2.299165,-2.835866
2350,3.535793,2.305371,-2.832758
2352,3.541382,2.316297,-2.830546
2355,3.541382,2.316297,-2.830546
2357,3.545195,2.321446,-2.83103
2359,3.545195,2.321446,-2.83103
2361,3.53762,2.302228,-2.837177
2364,3.523479,2.266672,-2.847851
2366,3.523479,2.266672,-2.847851
2368,3.516971,2.250381,-2.852521
2371,3.516971,2.250381,-2.852521
2373,3.504702,2.224136,-2.857115
2375,3.504702,2.224136,-2.857115
2378,3.499111,2.213462,-2.858006
2380,3.479472,2.198557,-2.846338
2382,3.479472,2.198557,-2.846338
2385,3.467183,2.193477,-2.836211
2387,3.467183,2.193477,-2.836211
2390,3.457683,2.18928,-2.828678
2393,3.418561,2.154496,-2.809374
2395,3.418561,2.154496,-2.809374
2397,3.404501,2.141283,-2.802956
2400,3.404501,2.141283,-2.802956
2402,3.378234,2.139729,-2.77354
2404,3.378234,2.139729,-2.77354
2407,3.368599,2.138631,-2.763005
2409,3.338358,2.116924,-2.742597
2411,3.338358,2.116924,-2.742597
2414,3.326843,2.108215,-2.735164
2416,3.326843,2.108215,-2.735164
2418,3.317237,2.100589,-2.729218
2421,3.317237,2.100589,-2.729218
2423,3.332723,2.153314,-2.707977
2425,3.343105,2.182295,-2.697548
2428,3.343105,2.182295,-2.697548
2430,3.355205,2.215407,-2.684455
2433,3.355205,2.215407,-2.684455
2436,3.358121,2.223168,-2.680733
2438,3.360394,2.229585,-2.677446
2440,3.360686,2.245069,-2.664695
2443,3.360919,2.258021,-2.653948
2445,3.360919,2.258021,-2.653948
2447,3.36121,2.269002,-2.644787
2449,3.36121,2.269002,-2.644787
2452,3.35713,2.29499,-2.616662
2454,3.355672,2.305286,-2.605567
2456,3.355672,2.305286,-2.605567
2459,3.351352,2.315283,-2.590877
2461,3.351352,2.315283,-2.590877
2463,3.345154,2.331373,-2.568188
2466,3.33096,2.317311,-2.561396
2468,3.33096,2.317311,-2.561396
2470,3.309556,2.296781,-2.550138
2473,3.309556,2.296781,-2.550138
2476,3.30405,2.303758,-2.536439
2478,3.30405,2.303758,-2.536439
2481,3.295387,2.314945,-2.514661
2483,3.282768,2.305541,-2.506631
2485,3.282768,2.305541,-2.506631
2488,3.263208,2.292089,-2.49285
2490,3.263208,2.292089,-2.49285
2492,3.256121,2.299421,-2.477413
2495,3.244315,2.310968,-2.452001
2497,3.244315,2.310968,-2.452001
2499,3.227193,2.29925,-2.44104
2502,3.227193,2.29925,-2.44104
2504,3.200083,2.281905,-2.422285
2506,3.200083,2.281905,-2.422285
2509,3.188254,2.281476,-2.407941
2511,3.169162,2.28079,-2.384416
2513,3.169162,2.28079,-2.384416
2516,3.16669,2.301633,-2.36248
2519,3.16669,2.301633,-2.36248
2521,3.161679,2.333471,-2.326751
2524,3.161679,2.333471,-2.326751
2526,3.161245,2.355511,-2.305541
2528,3.159635,2.389828,-2.270382
2531,3.159635,2.389828,-2.270382
2533,3.156163,2.403955,-2.252119
2535,3.156163,2.403955,-2.252119
2537,3.152812,2.416137,-2.235634
2540,3.145974,2.438393,-2.204159
2542,3.145974,2.438393,-2.204159
2544,3.142674,2.448406,-2.189369
2547,3.142674,2.448406,-2.189369
2549,3.151756,2.487348,-2.155404
2551,3.151756,2.487348,-2.155404
2554,3.170336,2.534509,-2.121541
2556,3.165268,2.536285,-2.110813
2558,3.165268,2.536285,-2.110813
2562,3.160874,2.53883,-2.100123
2564,3.160874,2.53883,-2.100123
2566,3.148835,2.537751,-2.082153
2569,3.141927,2.535281,-2.074431
2571,3.141927,2.535281,-2.074431
2573,3.14392,2.552516,-2.056998
2576,3.14392,2.552516,-2.056998
2578,3.150389,2.568493,-2.047749
2580,3.150389,2.568493,-2.047749
2583,3.163474,2.601056,-2.029219
2585,3.170027,2.617559,-2.019939
2587,3.170027,2.617559,-2.019939
2590,3.173483,2.633959,-2.006914
2592,3.173483,2.633959,-2.006914
2594,3.171756,2.636336,-2.002325
2597,3.171756,2.636336,-2.002325
2599,3.165639,2.636262,-1.994589
2601,3.161927,2.634925,-1.991053
2605,3.161927,2.634925,-1.991053
2607,3.151632,2.630018,-1.982483
2609,3.151632,2.630018,-1.982483
2612,3.145912,2.627113,-1.977937
2614,3.131316,2.617634,-1.968614
2616,3.131316,2.617634,-1.968614
2619,3.123366,2.611945,-1.964135
2621,3.123366,2.611945,-1.964135
2623,3.109924,2.603012,-1.955147
2625,3.109924,2.603012,-1.955147
2628,3.109924,2.603012,-1.955147
2630,3.109924,2.603012,-1.955147
2632,3.109924,2.603012,-1.955147
2635,3.100341,2.595858,-1.949433
2637,3.100341,2.595858,-1.949433
2639,3.08553,2.585583,-1.93967
2642,3.079815,2.582098,-1.935529
2644,3.079815,2.582098,-1.935529
2647,3.068926,2.574735,-1.927931
2650,3.068926,2.574735,-1.927931
2652,3.063883,2.571311,-1.924374
2654,3.063883,2.571311,-1.924374
2657,3.05345,2.56384,-1.917446
2659,3.048317,2.56002,-1.914075
2661,3.048317,2.56002,-1.914075
2664,3.038862,2.552823,-1.907623
2666,3.038862,2.552823,-1.907623
2668,3.034478,2.549754,-1.904131
2671,3.026856,2.544221,-1.898058
2673,3.026856,2.544221,-1.898058
2675,3.023556,2.541681,-1.895272
2678,3.023556,2.541681,-1.895272
2680,3.0209,2.540295,-1.892378
2682,3.0209,2.540295,-1.892378
2685,3.013309,2.533659,-1.887408
2688,3.010644,2.531805,-1.884814
2690,3.010644,2.531805,-1.884814
2693,3.007326,2.530413,-1.879198
2695,3.007326,2.530413,-1.879198
2697,3.006154,2.530413,-1.876489
2700,3.006154,2.530413,-1.876489
2702,3.003809,2.530258,-1.870953
2704,3.000418,2.527627,-1.867603
2707,3.000418,2.527627,-1.867603
2709,2.99846,2.525612,-1.866554
2711,2.99846,2.525612,-1.866554
2713,2.996174,2.523984,-1.863932
2716,2.995521,2.524062,-1.862356
2718,2.995521,2.524062,-1.862356
2720,2.995194,2.524527,-1.860779
2723,2.995194,2.524527,-1.860779
2725,2.995652,2.526852,-1.857727
2727,2.995652,2.526852,-1.857727
2731,2.996436,2.528633,-1.856462
2733,2.998003,2.529949,-1.856673
2735,2.998003,2.529949,-1.856673
2738,3.000222,2.532655,-1.85604
2740,3.000222,2.532655,-1.85604
2742,3.000875,2.5325,-1.857516
2745,3.001788,2.532732,-1.85878
2747,3.001788,2.532732,-1.85878
2749,3.002114,2.531959,-1.860674
2752,3.002114,2.531959,-1.860674
2754,3.002701,2.531263,-1.862881
2756,3.002701,2.531263,-1.862881
2759,3.003418,2.53049,-1.865296
2761,3.004526,2.529794,-1.867917
2763,3.004526,2.529794,-1.867917
2766,3.00635,2.530413,-1.869697
2768,3.00635,2.530413,-1.869697
2770,3.009213,2.531727,-1.871685
2774,3.009669,2.530877,-1.873044
2776,3.009669,2.530877,-1.873044
2778,3.010124,2.530181,-1.874297
2781,3.010124,2.530181,-1.874297
2783,3.010839,2.529639,-1.87555
2785,3.010839,2.529639,-1.87555
2788,3.012074,2.529484,-1.877114
2790,3.012594,2.528633,-1.878886
2792,3.012594,2.528633,-1.878886
2794,3.013569,2.527704,-1.881072
2797,3.013569,2.527704,-1.881072
2799,3.022067,2.540141,-1.878365
2801,3.022067,2.540141,-1.878365
2804,3.035059,2.559409,-1.873775
2806,3.039313,2.565901,-1.872939
2808,3.039313,2.565901,-1.872939
2811,3.046197,2.57633,-1.871162
2813,3.046197,2.57633,-1.871162
2816,3.039635,2.566206,-1.874819
2819,3.030153,2.551826,-1.879511
2821,3.030153,2.551826,-1.879511
2823,3.022779,2.540372,-1.883256
2826,3.022779,2.540372,-1.883256
2828,3.01688,2.531341,-1.886267
2830,3.01688,2.531341,-1.886267
2833,3.007196,2.515673,-1.891758
2835,2.999896,2.503662,-1.896201
2837,2.999896,2.503662,-1.896201
2840,2.995913,2.496851,-1.898883
2842,2.995913,2.496851,-1.898883
2844,2.990157,2.487269,-1.902384
2847,2.987734,2.483253,-1.903926
2849,2.987734,2.483253,-1.903926
2851,2.985965,2.480177,-1.905159
2854,2.98439,2.477729,-1.905981
2856,2.983407,2.4752,-1.907418
2859,2.983407,2.4752,-1.907418
2862,2.982685,2.473222,-1.908443
2864,2.982816,2.471005,-1.9108
2866,2.982816,2.471005,-1.9108
2869,2.983275,2.470451,-1.911927
2871,2.983275,2.470451,-1.911927
2873,2.985965,2.472114,-1.91336
2876,2.985965,2.472114,-1.91336
2878,2.987865,2.473855,-1.913564
2880,2.991401,2.477176,-1.914382
2882,2.991401,2.477176,-1.914382
2885,2.993102,2.478914,-1.914689
2887,2.993102,2.478914,-1.914689
2889,2.995129,2.480966,-1.9152
2892,2.995782,2.481754,-1.915506
2894,2.995782,2.481754,-1.915506
2896,2.996958,2.483095,-1.915711
2899,2.996958,2.483095,-1.915711
2902,2.997416,2.483883,-1.915711
2904,2.997416,2.483883,-1.915711
2907,2.996174,2.482464,-1.916221
2909,2.994867,2.480887,-1.91663
2911,2.994867,2.480887,-1.91663
2914,2.993037,2.478677,-1.91714
2916,2.993037,2.478677,-1.91714
2918,2.99127,2.477097,-1.917242
2921,2.988782,2.474567,-1.917242
2923,2.988782,2.474567,-1.917242
2925,2.98662,2.472272,-1.916936
2928,2.98662,2.472272,-1.916936
2930,2.983472,2.469024,-1.91663
2932,2.983472,2.469024,-1.91663
2935,2.979861,2.46474,-1.916528
2937,2.974404,2.458697,-1.916425
2939,2.974404,2.458697,-1.916425
2942,2.972824,2.457263,-1.916017
2945,2.972824,2.457263,-1.916017
2947,2.970452,2.455032,-1.915506
2950,2.973153,2.459572,-1.913155
2952,2.973153,2.459572,-1.913155
2954,2.976969,2.466327,-1.909571
2957,2.976969,2.466327,-1.909571
2959,2.980584,2.471797,-1.907212
2961,2.980584,2.471797,-1.907212
2964,2.985702,2.479782,-1.903823
2966,2.989241,2.485143,-1.901766
2968,2.989241,2.485143,-1.901766
2970,2.994344,2.492771,-1.898676
2973,2.994344,2.492771,-1.898676
2975,2.995847,2.49544,-1.897233
2977,2.995847,2.49544,-1.897233
2980,2.998003,2.499359,-1.894962
2982,3.000222,2.50288,-1.893412
2984,3.000222,2.50288,-1.893412
2988,3.002049,2.505772,-1.892172
2990,3.002049,2.505772,-1.892172
2992,3.005112,2.510376,-1.890412
2995,3.00648,2.512169,-1.889791
2997,3.00648,2.512169,-1.889791
2999,3.008953,2.515206,-1.888859
3002,3.008953,2.515206,-1.888859
3004,3.010124,2.516606,-1.888548
3006,3.010124,2.516606,-1.888548
3009,3.011229,2.51785,-1.88803
3011,3.011359,2.518006,-1.887823
3013,3.011359,2.518006,-1.887823
3016,3.013244,2.520259,-1.886889
3018,3.013244,2.520259,-1.886889
3020,3.015841,2.523364,-1.885748
3023,3.017269,2.524915,-1.885644
3025,3.017269,2.524915,-1.885644
3027,3.018372,2.526,-1.885644
3031,3.018372,2.526,-1.885644
3033,3.021743,2.529794,-1.88471
3035,3.021743,2.529794,-1.88471
3038,3.023685,2.532037,-1.884191
3040,3.026921,2.535744,-1.88336
3042,3.026921,2.535744,-1.88336
3045,3.028279,2.537133,-1.883256
3047,3.028279,2.537133,-1.883256
3049,3.031122,2.539755,-1.883256
3052,3.031122,2.539755,-1.883256
3054,3.032413,2.540911,-1.883256
3056,3.034994,2.542836,-1.883983
3058,3.034994,2.542836,-1.883983
3061,3.037187,2.544144,-1.884917
3063,3.037187,2.544144,-1.884917
3065,3.038991,2.545221,-1.885955
3068,3.040343,2.546144,-1.886682
3070,3.040343,2.546144,-1.886682
3073,3.042274,2.54722,-1.887823
3076,3.042274,2.54722,-1.887823
3078,3.042918,2.547604,-1.888237
3080,3.042918,2.547604,-1.888237
3083,3.043561,2.54722,-1.889688
3085,3.043561,2.546682,-1.890516
3087,3.043561,2.546682,-1.890516
3090,3.044783,2.546451,-1.892792
3092,3.044783,2.546451,-1.892792
3094,3.045747,2.546528,-1.894032
3097,3.047354,2.546912,-1.896304
3099,3.047354,2.546912,-1.896304
3101,3.048124,2.546912,-1.897336
3104,3.048124,2.546912,-1.897336
3106,3.048702,2.547066,-1.898161
3108,3.048702,2.547066,-1.898161
3111,3.038604,2.53165,-1.903412
3113,3.034865,2.525922,-1.905262
3116,3.034865,2.517151,-1.907623
3119,3.024009,2.510064,-1.909469
3121,3.024009,2.510064,-1.909469
3123,3.019928,2.504131,-1.911108
3126,3.012334,2.492771,-1.913973
3128,3.012334,2.492771,-1.913973
3130,3.009473,2.488528,-1.914995
3133,3.005177,2.482701,-1.915404
3135,3.001592,2.477966,-1.915711
3137,3.001592,2.477966,-1.915711
3140,2.994998,2.469182,-1.916221
3142,2.992055,2.465216,-1.916528
3144,2.992055,2.465216,-1.916528
3146,2.98852,2.460527,-1.916323
3149,2.98852,2.460527,-1.916323
3151,2.987603,2.459333,-1.916017
3153,2.987603,2.459333,-1.916017
3156,2.986096,2.457582,-1.9152
3159,2.98544,2.456785,-1.914893
3161,2.98544,2.456785,-1.914893
3164,2.986686,2.45798,-1.91428
3166,2.986686,2.45798,-1.91428
3168,2.988062,2.459493,-1.913973
3171,2.990812,2.462754,-1.913257
3173,2.990812,2.462754,-1.913257
3175,2.991925,2.464422,-1.912643
3178,2.991925,2.464422,-1.912643
3180,3.018891,2.501081,-1.902898
3182,3.018891,2.501081,-1.902898
3185,3.040665,2.530413,-1.894962
3187,3.059023,2.555122,-1.888548
3189,3.059023,2.555122,-1.888548
3192,3.067204,2.564375,-1.888444
3194,3.067204,2.564375,-1.888444
3196,3.073579,2.571768,-1.888237
3200,3.096487,2.60241,-1.880239
3202,3.096487,2.60241,-1.880239
3204,3.140431,2.660504,-1.865611
3207,3.140431,2.660504,-1.865611
3209,3.161431,2.68788,-1.858674
3211,3.161431,2.68788,-1.858674
3214,3.179708,2.711661,-1.852768
3216,3.212783,2.754206,-1.842175
3218,3.212783,2.754206,-1.842175
3221,3.226161,2.771352,-1.837921
3223,3.226161,2.771352,-1.837921
3225,3.246306,2.796944,-1.831949
3228,3.255039,2.807841,-1.829276
3230,3.255039,2.807841,-1.829276
3232,3.265247,2.820292,-1.826599
3234,3.265247,2.820292,-1.826599
3237,3.27022,2.826393,-1.825206
3239,3.27022,2.826393,-1.825206
3241,3.224158,2.767535,-1.839092
3245,3.208027,2.746591,-1.843981
3247,3.208027,2.746591,-1.843981
3249,3.155357,2.680149,-1.8572
3252,3.155357,2.680149,-1.8572
3254,3.136127,2.655792,-1.862041
3256,3.136127,2.655792,-1.862041
3259,3.115647,2.629646,-1.867603
3261,3.084896,2.590197,-1.875967
3263,3.084896,2.590197,-1.875967
3266,3.07103,2.572529,-1.879198
3268,3.07103,2.572529,-1.879198
3270,3.049665,2.545375,-1.884191
3273,3.049665,2.545375,-1.884191
3275,3.049665,2.545375,-1.884191
3277,3.040601,2.534123,-1.886059
3280,3.040601,2.534123,-1.886059
3282,3.021419,2.506241,-1.892275
3284,3.021419,2.506241,-1.892275
3288,3.005438,2.482622,-1.897645
3290,2.99199,2.462833,-1.901972
3292,2.99199,2.462833,-1.901972
3295,2.974601,2.442082,-1.902795
3297,2.974601,2.442082,-1.902795
3299,2.960683,2.421881,-1.906597
3302,2.938649,2.389254,-1.912643
3304,2.938649,2.389254,-1.912643
3306,2.923288,2.367033,-1.91663
3309,2.923288,2.367033,-1.91663
3311,2.898608,2.330786,-1.923255
3313,2.898608,2.330786,-1.923255
3316,2.890221,2.318071,-1.925086
3318,2.875691,2.295928,-1.928438
3320,2.875691,2.295928,-1.928438
3322,2.870854,2.288756,-1.928743
3325,2.870854,2.288756,-1.928743
3328,2.861976,2.275205,-1.930061
3330,2.861976,2.275205,-1.930061
3333,2.857527,2.270124,-1.92854
3335,2.849157,2.259754,-1.927118
3337,2.849157,2.259754,-1.927118
3340,2.846407,2.256981,-1.925594
3342,2.846407,2.256981,-1.925594
3344,2.843655,2.253944,-1.924578
3347,2.83766,2.247944,-1.922034
3349,2.83766,2.247944,-1.922034
3351,2.834692,2.245069,-1.9202
3354,2.834692,2.245069,-1.9202
3356,2.828955,2.240094,-1.91714
3358,2.828955,2.240094,-1.91714
3361,2.826185,2.237647,-1.915813
3363,2.823344,2.234846,-1.914689
3365,2.823344,2.234846,-1.914689
3368,2.819667,2.232831,-1.911005
3371,2.819667,2.232831,-1.911005
3373,2.817584,2.230989,-1.909776
3376,2.827224,2.258108,-1.894342
3378,2.827224,2.258108,-1.894342
3380,2.830338,2.267363,-1.888652
3383,2.830338,2.267363,-1.888652
3385,2.84393,2.292943,-1.877323
3387,2.84393,2.292943,-1.877323
3390,2.867101,2.33607,-1.857832
3392,2.876916,2.354098,-1.849809
3394,2.876916,2.354098,-1.849809
3397,2.893741,2.384252,-1.83579
3399,2.893741,2.384252,-1.83579
3401,2.900903,2.396861,-1.829918
3403,2.906768,2.407209,-1.824884
3406,2.906768,2.407209,-1.824884
3408,2.918932,2.427774,-1.817039
3410,2.918932,2.427774,-1.817039
3414,2.923355,2.435421,-1.813913
3416,2.923355,2.435421,-1.813913
3418,2.913226,2.417837,-1.820159
3421,2.897865,2.391056,-1.829383
3423,2.897865,2.391056,-1.829383
3425,2.887782,2.372896,-1.836536
3428,2.887782,2.372896,-1.836536
3430,2.872081,2.344768,-1.847374
3432,2.872081,2.344768,-1.847374
3435,2.871467,2.344851,-1.847585
3437,2.870581,2.344183,-1.847797
3439,2.870581,2.344183,-1.847797
3442,2.866145,2.331877,-1.85741
3444,2.866145,2.331877,-1.85741
3446,2.86389,2.326247,-1.861305
3449,2.858074,2.314353,-1.867812
3451,2.858074,2.314353,-1.867812
3453,2.848264,2.294478,-1.878365
3457,2.848264,2.294478,-1.878365
3459,2.843655,2.285162,-1.883048
3461,2.843655,2.285162,-1.883048
3464,2.835866,2.269348,-1.890826
3466,2.83338,2.263648,-1.894342
3468,2.83338,2.263648,-1.894342
3471,2.83103,2.258194,-1.897336
3473,2.83103,2.258194,-1.897336
3475,2.826324,2.248814,-1.902384
3478,2.824107,2.244197,-1.904543
3480,2.824107,2.244197,-1.904543
3482,2.822651,2.241143,-1.906391
3485,2.822651,2.241143,-1.906391
3487,2.819598,2.234846,-1.909571
3489,2.819598,2.234846,-1.909571
3491,2.818973,2.232831,-1.911518
3494,2.817306,2.22818,-1.914689
3496,2.817306,2.22818,-1.914689
3499,2.818279,2.228619,-1.916017
3502,2.818279,2.228619,-1.916017
3504,2.818765,2.228356,-1.917446
3506,2.82161,2.230112,-1.919894
3509,2.82161,2.230112,-1.919894
3511,2.823414,2.231603,-1.921321
3513,2.823414,2.231603,-1.921321
3516,2.825839,2.23397,-1.922441
3518,2.825839,2.23397,-1.922441
3520,2.828955,2.236159,-1.924984
3523,2.832758,2.240269,-1.926103
3525,2.832758,2.240269,-1.926103
3527,2.835659,2.242801,-1.927118
3530,2.835659,2.242801,-1.927118
3532,2.839935,2.247596,-1.927829
3534,2.839935,2.247596,-1.927829
3537,2.841589,2.249772,-1.927931
3539,2.842691,2.251076,-1.928032
3542,2.842691,2.251076,-1.928032
3545,2.846957,2.256287,-1.927626
3547,2.846957,2.256287,-1.927626
3549,2.848264,2.257761,-1.927728
3552,2.850118,2.260187,-1.927626
3554,2.850118,2.260187,-1.927626
3556,2.849981,2.2601,-1.927524
3559,2.849981,2.2601,-1.927524
3561,2.849775,2.259754,-1.927524
3563,2.849775,2.259754,-1.927524
3566,2.849569,2.259148,-1.927728
3568,2.848676,2.258714,-1.927118
3570,2.848676,2.258714,-1.927118
3573,2.849363,2.259927,-1.92661
3575,2.849363,2.259927,-1.92661
3577,2.85005,2.261139,-1.926306
3579,2.848469,2.259061,-1.926407
3582,2.848469,2.259061,-1.926407
3585,2.847095,2.257154,-1.92661
3587,2.847095,2.257154,-1.92661
3590,2.841727,2.251163,-1.925696
3592,2.841727,2.251163,-1.925696
3594,2.83835,2.247596,-1.924984
3597,2.835451,2.244546,-1.924578
3599,2.835451,2.244546,-1.924578
3601,2.830269,2.239395,-1.922441
3604,2.830269,2.239395,-1.922441
3606,2.828332,2.237384,-1.921932
3608,2.828332,2.237384,-1.921932
3611,2.822235,2.231954,-1.918773
3613,2.819945,2.229761,-1.917753
3615,2.819945,2.229761,-1.917753
3618,2.814734,2.22528,-1.914893
3620,2.814734,2.22528,-1.914893
3622,2.812786,2.22352,-1.913871
3625,2.809234,2.221847,-1.910288
3628,2.809234,2.221847,-1.910288
3630,2.80798,2.221054,-1.909059
3633,2.80798,2.221054,-1.909059
3635,2.805678,2.220084,-1.906494
3637,2.805678,2.220084,-1.906494
3640,2.804702,2.219555,-1.905775
3642,2.804073,2.220525,-1.903206
3644,2.804073,2.220525,-1.903206
3647,2.803585,2.220701,-1.902281
3649,2.803585,2.220701,-1.902281
3651,2.802048,2.221318,-1.898986
3654,2.801419,2.221406,-1.897852
3656,2.801419,2.221406,-1.897852
3658,2.800651,2.222992,-1.895065
3661,2.800651,2.222992,-1.895065
3663,2.800371,2.223432,-1.894136
3665,2.800371,2.223432,-1.894136
3667,2.799113,2.222816,-1.892689
3671,2.797154,2.221759,-1.890723
3673,2.797154,2.221759,-1.890723
3675,2.795404,2.221759,-1.887823
3678,2.795404,2.221759,-1.887823
3680,2.794703,2.221671,-1.886889
3682,2.796384,2.226511,-1.883567
3685,2.796384,2.226511,-1.883567
3687,2.796804,2.228092,-1.88232
3689,2.796804,2.228092,-1.88232
3692,2.799182,2.232042,-1.880239
3694,2.799182,2.232042,-1.880239
3696,2.802328,2.237559,-1.877531
3699,2.806934,2.243674,-1.876489
3701,2.806934,2.243674,-1.876489
3703,2.813621,2.25238,-1.875028
3706,2.813621,2.25238,-1.875028
3708,2.818487,2.258541,-1.874297
3710,2.818487,2.258541,-1.874297
3714,2.825216,2.26719,-1.873357
3716,2.828609,2.271761,-1.872521
3718,2.828609,2.271761,-1.872521
3721,2.833449,2.2783,-1.87158
3723,2.833449,2.2783,-1.87158
3725,2.836901,2.282676,-1.87158
3728,2.839591,2.286275,-1.87158
3730,2.839591,2.286275,-1.87158
3732,2.844206,2.29243,-1.871267
3735,2.844206,2.29243,-1.871267
3737,2.845926,2.295246,-1.870639
3739,2.845926,2.295246,-1.870639
3742,2.849706,2.300867,-1.869488
3744,2.851423,2.303758,-1.868755
3746,2.851423,2.303758,-1.868755
3749,2.860471,2.317058,-1.865611
3751,2.860471,2.317058,-1.865611
3753,2.863753,2.321783,-1.864561
3756,2.868193,2.328349,-1.862566
3759,2.87174,2.333639,-1.860989
3761,2.874533,2.337913,-1.859622
3763,2.874533,2.337913,-1.859622
3766,2.881879,2.347937,-1.8572
3768,2.881879,2.347937,-1.8572
3770,2.884526,2.351519,-1.856462
3773,2.894079,2.365296,-1.853085
3775,2.894079,2.365296,-1.853085
3777,2.897459,2.370173,-1.852029
3780,2.897459,2.370173,-1.852029
3782,2.906633,2.382774,-1.849491
3784,2.906633,2.382774,-1.849491
3787,2.911881,2.389664,-1.848115
3789,2.922015,2.402163,-1.846208
3791,2.922015,2.402163,-1.846208
3794,2.926835,2.407697,-1.845466
3796,2.926835,2.407697,-1.845466
3799,2.93625,2.418404,-1.843768
3802,2.940647,2.423416,-1.843025
3804,2.940647,2.423416,-1.843025
3806,2.944173,2.427532,-1.842494
3809,2.944173,2.427532,-1.842494
3811,2.958235,2.444726,-1.839518
3813,2.958235,2.444726,-1.839518
3816,2.963128,2.450883,-1.838347
3818,2.968013,2.459891,-1.830666
3820,2.968013,2.459891,-1.830666
3823,2.971967,2.467755,-1.823167
3825,2.971967,2.467755,-1.823167
3827,2.973745,2.47148,-1.819407
3830,2.977035,2.479071,-1.811105
3832,2.977035,2.479071,-1.811105
3834,2.978547,2.482937,-1.806886
3837,2.978547,2.482937,-1.806886
3840,2.97973,2.485852,-1.803417
3842,2.97973,2.485852,-1.803417
3844,3.00407,2.526774,-1.785422
3847,3.013309,2.542143,-1.778723
3849,3.013309,2.542143,-1.778723
3851,3.040279,2.587097,-1.758139
3854,3.040279,2.587097,-1.758139
3856,3.050821,2.604365,-1.750218
3858,3.062668,2.62972,-1.731218
3861,3.062668,2.62972,-1.731218
3863,3.067586,2.63975,-1.724196
3865,3.067586,2.63975,-1.724196
3868,3.080895,2.667851,-1.702839
3870,3.080895,2.667851,-1.702839
3872,3.093577,2.694208,-1.682374
3875,3.099899,2.707326,-1.672223
3877,3.099899,2.707326,-1.672223
3879,3.105704,2.718942,-1.663423
3883,3.105704,2.718942,-1.663423
3885,3.096297,2.716637,-1.646157
3887,3.096297,2.716637,-1.646157
3890,3.093451,2.716781,-1.639008
3892,3.111183,2.754277,-1.607178
3894,3.111183,2.754277,-1.607178
3897,3.118662,2.769373,-1.594341
3899,3.118662,2.769373,-1.594341
3901,3.201612,2.886969,-1.539514
3904,3.234646,2.932848,-1.51788
3906,3.234646,2.932848,-1.51788
3908,3.258946,2.977232,-1.480284
3911,3.258946,2.977232,-1.480284
3913,3.269921,2.996174,-1.465002
3915,3.269921,2.996174,-1.465002
3918,3.246246,2.987996,-1.427247
3920,3.239242,2.987537,-1.411392
3922,3.239242,2.987537,-1.411392
3926,3.241961,3.010514,-1.365874
3928,3.241961,3.010514,-1.365874
3930,3.244858,3.021613,-1.346975
3932,3.260267,3.057679,-1.299804
3935,3.260267,3.057679,-1.299804
3937,3.267765,3.073388,-1.280236
3939,3.267765,3.073388,-1.280236
3942,3.288131,3.110302,-1.239542
3944,3.288131,3.110302,-1.239542
3946,3.288131,3.110302,-1.239542
3949,3.288131,3.110302,-1.239542
3951,3.288131,3.110302,-1.239542
3953,3.287357,3.118348,-1.215792
3956,3.287357,3.118348,-1.215792
3958,3.292118,3.136876,-1.176197
3960,3.295743,3.14641,-1.158934
3963,3.295743,3.14641,-1.158934
3965,3.306004,3.167185,-1.125179
3968,3.306004,3.167185,-1.125179
3971,3.311448,3.177367,-1.109946
3973,3.311448,3.177367,-1.109946
3975,3.394999,3.286106,-1.026029
3978,3.42914,3.329608,-0.9916978
3980,3.42914,3.329608,-0.9916978
3982,3.532968,3.449406,-0.9253501
3985,3.532968,3.449406,-0.9253501
3987,3.575496,3.498272,-0.8970026
3989,3.575496,3.498272,-0.8970026
3992,3.605652,3.534409,-0.861165
3994,3.620446,3.552146,-0.8439512
3996,3.620446,3.552146,-0.8439512
3999,3.608203,3.545526,-0.8101172
4001,3.608203,3.545526,-0.8101172
4003,3.607064,3.547182,-0.7935224
4006,3.57325,3.516247,-0.7702479
4008,3.547679,3.493567,-0.747558
4011,3.528698,3.477389,-0.7263159
4013,3.528698,3.477389,-0.7263159
4016,3.540386,3.494968,-0.6892704
4018,3.540386,3.494968,-0.6892704
4020,3.563978,3.52781,-0.6258884
4023,3.533799,3.500174,-0.6042554
4025,3.533799,3.500174,-0.6042554
4027,3.493231,3.464359,-0.563365
4030,3.493231,3.464359,-0.563365
4032,3.462776,3.435814,-0.5450047
4034,3.420222,3.397132,-0.5093729
4037,3.420222,3.397132,-0.5093729
4039,3.443157,3.424512,-0.4722982
4041,3.443157,3.424512,-0.4722982
4044,3.481384,3.469385,-0.4087828
4046,3.481384,3.469385,-0.4087828
4048,3.530362,3.523701,-0.3460502
4051,3.55947,3.555067,-0.3140353
4054,3.55947,3.555067,-0.3140353
4056,3.585449,3.582827,-0.2846186
4059,3.585449,3.582827,-0.2846186
4061,3.635827,3.633618,-0.2668786
4063,3.635827,3.633618,-0.2668786
4066,3.657359,3.655538,-0.2548778
4068,3.76213,3.761714,-0.220287
4070,3.76213,3.761714,-0.220287
4073,3.804365,3.804571,-0.2017412
4075,3.804365,3.804571,-0.2017412
4077,3.885142,3.887158,-0.1467098
4080,3.919965,3.922462,-0.1203313
4082,3.919965,3.922462,-0.1203313
4084,3.981282,3.984379,-0.0656106
4087,3.981282,3.984379,-0.0656106
4089,4.008634,4.01171,-0.03956468
4091,4.008634,4.01171,-0.03956468
4094,3.907106,3.910062,0
4097,3.873279,3.876008,0
4099,3.873279,3.876008,0
4101,3.74941,3.751654,0.03426402
4104,3.74941,3.751654,0.03426402
4106,3.705916,3.707818,0.05233916
4108,3.607335,3.607986,0.09278741
4111,3.607335,3.607986,0.09278741
4113,3.572154,3.572099,0.1119058
4115,3.572154,3.572099,0.1119058
4118,3.607661,3.606249,0.1384764
4120,3.63825,3.635396,0.166689
4122,3.664579,3.660195,0.191797
4125,3.728409,3.722312,0.2148914
4127,3.728409,3.722312,0.2148914
4129,3.754003,3.747006,0.2281412
4132,3.754003,3.747006,0.2281412
4134,3.82848,3.820134,0.2486604
4136,3.94541,3.934376,0.2866737
4140,3.94541,3.934376,0.2866737
4142,3.979904,3.966646,0.315279
4144,3.979904,3.966646,0.315279
4147,4.039633,4.021705,0.3685048
4149,4.039633,4.021705,0.3685048
4151,4.055213,4.034588,0.3961419
4154,4.086339,4.060328,0.4471871
4156,4.086339,4.060328,0.4471871
4158,4.130858,4.101312,0.4784724
4161,4.130858,4.101312,0.4784724
4163,4.206402,4.169975,0.5352231
4165,4.206402,4.169975,0.5352231
4168,4.236327,4.1961,0.5640592
4170,4.290716,4.242979,0.6180231
4172,4.290716,4.242979,0.6180231
4175,4.303341,4.251509,0.6443735
4177,4.303341,4.251509,0.6443735
4179,4.331105,4.271502,0.6935157
4183,4.332235,4.268887,0.7154584
4185,4.332235,4.268887,0.7154584
4187,4.344244,4.273014,0.7600183
4189,4.344244,4.273014,0.7600183
4192,4.340095,4.265628,0.776825
4194,4.340095,4.265628,0.776825
4196,4.342486,4.261356,0.8120472
4199,4.332551,4.24856,0.8254311
4201,4.332551,4.24856,0.8254311
4203,4.325086,4.23494,0.8550079
4206,4.325086,4.23494,0.8550079
4208,4.310753,4.218583,0.8636609
4210,4.301747,4.207101,0.8744686
4213,4.301747,4.207101,0.8744686
4215,4.282537,4.183479,0.8937243
4217,4.282537,4.183479,0.8937243
4220,4.273152,4.172041,0.9022229
4222,4.273152,4.164101,0.9121451
4225,4.24404,4.138578,0.9187712
4228,4.226607,4.118799,0.9272513
4230,4.226607,4.118799,0.9272513
4232,4.184837,4.071888,0.9441901
4235,4.184837,4.071888,0.9441901
4237,4.16236,4.046656,0.9532654
4239,4.16236,4.046656,0.9532654
4242,4.139714,4.019805,0.9679322
4244,4.136165,4.014736,0.9735762
4246,4.136165,4.014736,0.9735762
4249,4.133181,4.009269,0.9833755
4251,4.133181,4.009269,0.9833755
4253,4.133276,4.008243,0.9879416
4256,4.115183,3.985656,1.003272
4258,4.115183,3.985656,1.003272
4260,4.100308,3.967683,1.013363
4263,4.100308,3.967683,1.013363
4265,4.069097,3.929944,1.034387
4268,4.069097,3.929944,1.034387
4271,4.053522,3.910913,1.044927
4273,4.020682,3.872268,1.061831
4275,4.020682,3.872268,1.061831
4277,4.004186,3.853156,1.06936
4280,4.004186,3.853156,1.06936
4282,3.976064,3.820032,1.083901
4284,3.964028,3.8056,1.090739
4287,3.964028,3.8056,1.090739
4289,3.950767,3.787962,1.104999
4291,3.950767,3.787962,1.104999
4294,3.947841,3.782841,1.112411
4296,3.947841,3.782841,1.112411
4298,3.944368,3.77595,1.12431
4301,3.943424,3.773668,1.129519
4303,3.943424,3.773668,1.129519
4305,3.942381,3.770917,1.135739
4308,3.942381,3.770917,1.135739
4311,3.93766,3.76416,1.143123
4313,3.933082,3.758277,1.148247
4316,3.933082,3.758277,1.148247
4318,3.930741,3.755515,1.150291
4320,3.930741,3.755515,1.150291
4323,3.928747,3.752698,1.153009
4325,3.928747,3.752698,1.153009
4327,3.883327,3.706392,1.150291
4330,3.866043,3.688173,1.151311
4332,3.866043,3.688173,1.151311
4334,3.82203,3.644218,1.145688
4337,3.82203,3.644218,1.145688
4339,3.804828,3.62639,1.145347
4341,3.804828,3.62639,1.145347
4344,3.772422,3.594992,1.138492
4346,3.759371,3.581733,1.137804
4348,3.759371,3.581733,1.137804
4352,3.730772,3.554791,1.128999
4354,3.730772,3.554791,1.128999
4356,3.719365,3.543648,1.127438
4359,3.695546,3.5217,1.118726
4361,3.695546,3.5217,1.118726
4363,3.685943,3.512347,1.116625
4365,3.685943,3.512347,1.116625
4368,3.668211,3.497264,1.106591
4370,3.668211,3.497264,1.106591
4372,3.660891,3.490315,1.104113
4375,3.643842,3.476207,1.093069
4377,3.643842,3.476207,1.093069
4379,3.636904,3.469949,1.090022
4382,3.636904,3.469949,1.090022
4384,3.623149,3.458985,1.079559
4386,3.617416,3.453887,1.076837
4389,3.617416,3.453887,1.076837
4391,3.60804,3.447817,1.065327
4393,3.60804,3.447817,1.065327
4397,3.603968,3.444635,1.062016
4399,3.603968,3.444635,1.062016
4401,3.599891,3.443498,1.051833
4404,3.597824,3.442247,1.048852
4406,3.597824,3.442247,1.048852
4408,3.586541,3.437694,1.026792
4411,3.586541,3.437694,1.026792
4413,3.581843,3.43513,1.019716
4415,3.566724,3.426913,0.9968149
4418,3.566724,3.426913,0.9968149
4420,3.56057,3.423026,0.9889315
4422,3.56057,3.423026,0.9889315
4425,3.554902,3.420622,0.9779881
4427,3.554902,3.420622,0.9779881
4429,3.545195,3.415295,0.9626616
4432,3.542598,3.415697,0.9526493
4434,3.542598,3.415697,0.9526493
4436,3.537509,3.414665,0.9383693
4440,3.537509,3.414665,0.9383693
4442,3.549169,3.428055,0.9339799
4444,3.549169,3.428055,0.9339799
4447,3.565845,3.447021,0.9278842
4449,3.588342,3.474178,0.9147157
4451,3.588342,3.474178,0.9147157
4453,3.606846,3.496312,0.9037398
4456,3.622122,3.514521,0.8952556
4458,3.641208,3.53762,0.8827091
4460,3.657037,3.556829,0.8726766
4463,3.657037,3.556829,0.8726766
4465,3.668958,3.569632,0.8704314
4467,3.668958,3.569632,0.8704314
4470,3.687642,3.589978,0.866827
4472,3.687642,3.589978,0.866827
4474,3.689341,3.590905,0.8695317
4477,3.692948,3.59374,0.8724523
4480,3.692948,3.59374,0.8724523
4482,3.692842,3.592813,0.8749159
4485,3.692842,3.592813,0.8749159
4487,3.693691,3.59265,0.8780415
4489,3.696287,3.594829,0.8793777
4492,3.696287,3.594829,0.8793777
4494,3.701052,3.599075,0.8807117
4496,3.701052,3.599075,0.8807117
4499,3.706286,3.604348,0.8804895
4501,3.706286,3.604348,0.8804895
4503,3.714677,3.61303,0.8793777
4506,3.722996,3.624446,0.8690815
4508,3.722996,3.624446,0.8690815
4510,3.736383,3.642499,0.8527163
4513,3.736383,3.642499,0.8527163
4515,3.741934,3.648139,0.8527163
4517,3.741934,3.648139,0.8527163
4520,3.74685,3.653288,0.8522572
4523,3.761246,3.669545,0.8469599
4525,3.761246,3.669545,0.8469599
4528,3.76967,3.679296,0.842791
4530,3.76967,3.679296,0.842791
4532,3.77678,3.687642,0.8393012
4535,3.783151,3.696181,0.8325126
4537,3.783151,3.696181,0.8325126
4539,3.788996,3.704225,0.8247196
4541,3.788996,3.704225,0.8247196
4544,3.791734,3.708081,0.8206762
4546,3.791734,3.708081,0.8206762
4548,3.797049,3.715467,0.8139727
4551,3.799575,3.718838,0.8108415
4553,3.799575,3.718838,0.8108415
4555,3.812027,3.73308,0.8052719
4558,3.812027,3.73308,0.8052719
4560,3.820698,3.742614,0.8030819
4562,3.837829,3.761142,0.7991739
4566,3.837829,3.761142,0.7991739
4568,3.845984,3.769826,0.7977034
4570,3.845984,3.769826,0.7977034
4573,3.853105,3.777454,0.796476
4575,3.853105,3.777454,0.796476
4577,3.850818,3.774549,0.7991739
4580,3.850614,3.774238,0.7996635
4582,3.850614,3.774238,0.7996635
4584,3.856356,3.776313,0.8151737
4587,3.856356,3.776313,0.8151737
4589,3.858894,3.777661,0.8201992
4591,3.859097,3.774135,0.8348597
4594,3.859097,3.774135,0.8348597
4596,3.859655,3.773408,0.8397673
4598,3.859655,3.773408,0.8397673
4601,3.853105,3.764836,0.8469599
4603,3.853105,3.764836,0.8469599
4605,3.848223,3.758277,0.8524867
4609,3.848223,3.758277,0.8524867
4611,3.848223,3.758277,0.8524867
4613,3.841552,3.752542,0.8490367
4616,3.841552,3.752542,0.8490367
4618,3.835481,3.745804,0.8508785
4620,3.83073,3.740835,0.8520276
4622,3.82715,3.737012,0.8529457
4625,3.824335,3.733342,0.85638
4627,3.824335,3.733342,0.85638
4629,3.820749,3.728619,0.8609378
4632,3.820749,3.728619,0.8609378
4634,3.83691,3.744393,0.8632076
4636,3.843234,3.750715,0.8634343
4639,3.843234,3.750715,0.8634343
4641,3.853969,3.761558,0.8641139
4643,3.853969,3.761558,0.8641139
4646,3.870295,3.778128,0.8641139
4648,3.870295,3.778128,0.8641139
4651,3.870548,3.780148,0.8570652
4654,3.871762,3.784238,0.8460353
4656,3.871762,3.784238,0.8460353
4658,3.878988,3.793902,0.8367326
4661,3.878988,3.793902,0.8367326
4663,3.890682,3.809252,0.8228193
4665,3.898777,3.819211,0.8158936
4668,3.898777,3.819211,0.8158936
4670,3.911564,3.834817,0.8055148
4672,3.911564,3.834817,0.8055148
4675,3.915817,3.839716,0.8028382
4677,3.915817,3.839716,0.8028382
4679,3.922961,3.848173,0.7977034
4682,3.927701,3.853766,0.7945082
4684,3.927701,3.853766,0.7945082
4686,3.935471,3.8628,0.7895671
4689,3.935471,3.8628,0.7895671
4691,3.933928,3.86138,0.7883269
4694,3.932584,3.860417,0.7860898
4697,3.932584,3.860417,0.7860898
4699,3.935073,3.863205,0.7850935
4701,3.935073,3.863205,0.7850935
4704,3.93945,3.86817,0.782347
4706,3.93945,3.86817,0.782347
4708,3.940444,3.868929,0.7828471
4710,3.942629,3.870902,0.7835966
4713,3.942629,3.870902,0.7835966
4715,3.944169,3.872571,0.7828471
4717,3.944169,3.872571,0.7828471
4720,3.947196,3.875857,0.7810954
4722,3.947196,3.875857,0.7810954
4724,3.946849,3.87525,0.782347
4727,3.946998,3.874897,0.7833468
4729,3.946998,3.874897,0.7833468
4731,3.947048,3.874492,0.7843454
4734,3.947048,3.874492,0.7843454
4737,3.947593,3.874543,0.7860898
4739,3.951461,3.878079,0.7883269
4742,3.951461,3.878079,0.7883269
4744,3.954829,3.881108,0.7900625
4746,3.957651,3.88368,0.7915472
4749,3.962694,3.88887,0.7912999
4751,3.962694,3.88887,0.7912999
4753,3.966794,3.893248,0.7910526
4756,3.978477,3.905201,0.7905577
4758,3.978477,3.905201,0.7905577
4760,3.985116,3.912064,0.7903101
4763,3.985116,3.912064,0.7903101
4765,3.997725,3.924908,0.7908052
4767,4.003599,3.93084,0.7908052
4770,4.003599,3.93084,0.7908052
4772,3.991941,3.917217,0.7999081
4774,3.991941,3.917217,0.7999081
4777,3.978427,3.90194,0.806971
4780,3.978427,3.90194,0.806971
4782,3.950271,3.868322,0.8294513
4785,3.936068,3.850614,0.8437192
4787,3.936068,3.850614,0.8437192
4789,3.924159,3.835634,0.8552368
4792,3.911464,3.818699,0.8708809
4794,3.900535,3.804056,0.8842595
4796,3.900535,3.804056,0.8842595
4798,3.890934,3.791217,0.8956926
4801,3.902994,3.802203,0.9000514
4803,3.902994,3.810691,0.9037398
4805,3.931139,3.829708,0.9028733
4808,3.931139,3.829708,0.9028733
4810,3.946353,3.845067,0.9028733
4812,3.95864,3.857423,0.9028733
4815,3.95864,3.857423,0.9028733
4817,3.898877,3.789719,0.930832
4819,3.898877,3.789719,0.930832
4823,3.876109,3.763588,0.9421154
4825,3.876109,3.763588,0.9421154
4827,3.887762,3.775743,0.9410763
4830,3.904599,3.795295,0.9310421
4832,3.904599,3.795295,0.9310421
4834,3.910713,3.803232,0.9236568
4837,3.910713,3.803232,0.9236568
4839,3.915267,3.8092,0.9185583
4841,3.867512,3.754837,0.9416999
4844,3.867512,3.754837,0.9416999
4846,3.849088,3.733605,0.9512104
4848,3.849088,3.733605,0.9512104
4851,3.801224,3.678126,0.9769872
4853,3.801224,3.678126,0.9769872
4855,3.782323,3.65602,0.9877436
4858,3.752803,3.620879,1.005804
4860,3.752803,3.620879,1.005804
4862,3.740626,3.606249,1.01375
4866,3.740626,3.606249,1.01375
4868,3.733657,3.597824,1.01914
4870,3.720997,3.582226,1.029076
4873,3.720997,3.582226,1.029076
4875,3.717838,3.578397,1.031355
4877,3.717838,3.578397,1.031355
4880,3.710616,3.569522,1.03722
4882,3.710616,3.569522,1.03722
4884,3.711038,3.569961,1.037786
4886,3.709507,3.567766,1.040611
4889,3.709507,3.567766,1.040611
4891,3.710457,3.569083,1.040046
4893,3.710457,3.569083,1.040046
4896,3.709877,3.568425,1.040611
4898,3.709877,3.568425,1.040611
4900,3.712409,3.571332,1.039858
4903,3.714096,3.572976,1.040423
4905,3.714096,3.572976,1.040423
4908,3.715941,3.575387,1.038728
4911,3.715941,3.575387,1.038728
4913,3.716943,3.576865,1.037409
4915,3.71868,3.579108,1.035332
4918,3.71868,3.579108,1.035332
4920,3.719365,3.580148,1.034197
4922,3.719365,3.580148,1.034197
4925,3.719996,3.580476,1.034387
4927,3.719996,3.580476,1.034387
4929,3.71947,3.579382,1.036277
4932,3.716626,3.576372,1.035521
4934,3.716626,3.576372,1.035521
4936,3.711301,3.570345,1.035521
4939,3.711301,3.570345,1.035521
4941,3.707184,3.566229,1.034765
4943,3.700311,3.55881,1.034387
4946,3.700311,3.55881,1.034387
4948,3.697823,3.556388,1.033251
4951,3.697823,3.556388,1.033251
4954,3.693213,3.551705,1.032303
4956,3.693213,3.551705,1.032303
4958,3.691782,3.550603,1.030216
4961,3.68881,3.547955,1.027934
4963,3.68881,3.547955,1.027934
4965,3.68828,3.548065,1.025075
4968,3.68828,3.548065,1.025075
4970,3.686634,3.547072,1.022207
4972,3.686634,3.547072,1.022207
4974,3.686527,3.547569,1.0201
4977,3.686208,3.547569,1.018372
4979,3.686208,3.547569,1.018372
4981,3.687377,3.549555,1.015678
4984,3.687377,3.549555,1.015678
4986,3.688492,3.551099,1.014329
4988,3.691729,3.555012,1.011817
4992,3.691729,3.555012,1.011817
4994,3.693479,3.557159,1.010463
4996,3.693479,3.557159,1.010463
4999,3.699041,3.563483,1.008136
5001,3.699041,3.563483,1.008136
5003,3.702374,3.567108,1.00736
5006,3.708821,3.574236,1.005415
5008,3.708821,3.574236,1.005415
5010,3.711829,3.577467,1.004247
5013,3.711829,3.577467,1.004247
5015,3.71768,3.584193,1.001906
5017,3.720628,3.587305,1.000929
5020,3.720628,3.587305,1.000929
5022,3.722312,3.589542,0.9983841
5024,3.722312,3.589542,0.9983841
5027,3.721733,3.58916,0.9972074
5029,3.721733,3.58916,0.9972074
5031,3.745543,3.61628,0.9859589
5035,3.765616,3.638949,0.9773876
5037,3.765616,3.638949,0.9773876
5039,3.779216,3.654627,0.9697499
5042,3.779216,3.654627,0.9697499
5044,3.77678,3.652216,0.9685385
5046,3.74988,3.625365,0.9650977
5049,3.74988,3.625365,0.9650977
5051,3.729144,3.604566,0.9626616
5053,3.729144,3.604566,0.9626616
5056,3.726202,3.603425,0.9542912
5058,3.726202,3.603425,0.9542912
5060,3.737903,3.616604,0.9489449
5062,3.750088,3.632217,0.9346082
5065,3.750088,3.632217,0.9346082
5067,3.752333,3.636365,0.926618
5069,3.752333,3.636365,0.926618
5072,3.765668,3.65243,0.9153573
5074,3.765668,3.65243,0.9153573
5076,3.775172,3.662869,0.9117159
5080,3.783255,3.671732,0.9084908
5082,3.783255,3.671732,0.9084908
5084,3.799884,3.689606,0.9043891
5087,3.799884,3.689606,0.9043891
5089,3.806372,3.696499,0.9024397
5091,3.732398,3.626769,0.8749159
5094,3.732398,3.626769,0.8749159
5096,3.704701,3.600707,0.8645667
5098,3.704701,3.600707,0.8645667
5101,3.576974,3.478234,0.8249568
5103,3.576974,3.478234,0.8249568
5105,3.52781,3.431195,0.8091505
5108,3.488688,3.396094,0.7880787
5110,3.488688,3.396094,0.7880787
5112,3.42657,3.340175,0.7545922
5115,3.42657,3.340175,0.7545922
5117,3.373594,3.290333,0.7340872
5120,3.301263,3.222761,0.7044336
5123,3.301263,3.222761,0.7044336
5125,3.277396,3.200573,0.6940797
5127,3.277396,3.200573,0.6940797
5130,3.2557,3.180447,0.6847132
5132,3.2557,3.180447,0.6847132
5134,3.263208,3.193531,0.6587883
5137,3.263148,3.195737,0.6477052
5139,3.263148,3.195737,0.6477052
5141,3.278531,3.215707,0.6265134
5144,3.278531,3.215707,0.6265134
5146,3.281515,3.220634,0.616438
5148,3.259907,3.1999,0.6103771
5150,3.259907,3.1999,0.6103771
5153,3.24932,3.189789,0.6065179
5155,3.24932,3.189789,0.6065179
5157,3.250886,3.192857,0.5993783
5160,3.250645,3.193898,0.5924829
5163,3.249019,3.193592,0.5855064
5165,3.264948,3.211747,0.575053
5168,3.264948,3.211747,0.575053
5170,3.268543,3.216498,0.5695826
5172,3.268543,3.216498,0.5695826
5175,3.249681,3.196349,0.5757331
5177,3.249681,3.196349,0.5757331
5179,3.240693,3.187088,0.5767518
5182,3.234585,3.180077,0.5814822
5184,3.22786,3.172681,0.5845029
5186,3.220999,3.165515,0.5861744
5189,3.220999,3.165515,0.5861744
5191,3.211808,3.156969,0.5841681
5193,3.206684,3.152191,0.5821548
5196,3.206684,3.152191,0.5821548
5198,3.234888,3.180447,0.5858405
5200,3.234888,3.180447,0.5858405
5203,3.243893,3.189728,0.5865081
5206,3.243893,3.189728,0.5865081
5208,3.272674,3.218749,0.5888388
5211,3.290215,3.236461,0.590498
5213,3.290215,3.236461,0.590498
5215,3.296813,3.243772,0.5865081
5218,3.296813,3.243772,0.5865081
5220,3.290452,3.237852,0.5821548
5222,3.279367,3.225858,0.5851721
5225,3.279367,3.225858,0.5851721
5227,3.274587,3.220026,0.5901666
5229,3.274587,3.220026,0.5901666
5231,3.228102,3.171447,0.5967609
5234,3.228102,3.171447,0.5967609
5236,3.209796,3.152439,0.598071
5238,3.206928,3.150824,0.591822
5241,3.206928,3.150824,0.591822
5243,3.200267,3.146223,0.5797972
5245,3.200267,3.146223,0.5797972
5249,3.206745,3.15424,0.5726661
5251,3.206745,3.15424,0.5726661
5253,3.214611,3.164649,0.5598809
5256,3.223915,3.175148,0.5542608
5258,3.223915,3.175148,0.5542608
5260,3.235917,3.189237,0.5442861
5263,3.235917,3.189237,0.5442861
5265,3.244436,3.198431,0.5410409
5267,3.25552,3.210772,0.5348573
5270,3.25552,3.210772,0.5348573
5272,3.25552,3.210772,0.5348573
5274,3.25552,3.210772,0.5348573
5277,3.25552,3.210772,0.5348573
5279,3.25552,3.210772,0.5348573
5281,3.262548,3.21881,0.5297108
5284,3.276381,3.234101,0.5218958
5286,3.276381,3.234101,0.5218958
5288,3.280799,3.239121,0.5185105
5292,3.280799,3.239121,0.5185105
5294,3.290988,3.250404,0.5128186
5296,3.294139,3.254016,0.5105241
5299,3.294139,3.254016,0.5105241
5301,3.303161,3.263868,0.5059038
5303,3.303161,3.263868,0.5059038
5306,3.307248,3.268364,0.5035778
5308,3.307248,3.268364,0.5035778
5310,3.312453,3.274229,0.4996771
5313,3.31393,3.276022,0.4977152
5315,3.31393,3.276022,0.4977152
5317,3.32054,3.283364,0.4941643
5319,3.32054,3.283364,0.4941643
5322,3.322545,3.28563,0.4925778
5324,3.325372,3.288845,0.4905876
5326,3.325372,3.288845,0.4905876
5329,3.326019,3.289738,0.4893896
5331,3.326019,3.289738,0.4893896
5334,3.328373,3.292296,0.4881886
5337,3.330019,3.294139,0.4881886
5339,3.331136,3.295387,0.4869847
5341,3.332018,3.296397,0.4873863
5344,3.332018,3.296397,0.4873863
5346,3.334309,3.298534,0.4885893
5348,3.334309,3.298534,0.4885893
5351,3.335541,3.299721,0.4893896
5353,3.335541,3.299721,0.4893896
5355,3.337008,3.301145,0.4905876
5358,3.340175,3.30405,0.4925778
5360,3.340175,3.30405,0.4925778
5362,3.344276,3.307899,0.4949555
5365,3.344276,3.307899,0.4949555
5367,3.345739,3.308905,0.4969283
5369,3.355789,3.318535,0.501241
5372,3.355789,3.318535,0.501241
5374,3.362957,3.325548,0.5028
5377,3.362957,3.325548,0.5028
5380,3.373013,3.335424,0.5043544
5382,3.373013,3.335424,0.5043544
5384,3.374696,3.33648,0.5082192
5387,3.376668,3.33783,0.5128186
5389,3.376668,3.33783,0.5128186
5391,3.385528,3.346441,0.5158621
5394,3.385528,3.346441,0.5158621
5396,3.397823,3.358413,0.5196414
5398,3.408064,3.368134,0.5233933
5401,3.408064,3.368134,0.5233933
5403,3.422453,3.381999,0.5286014
5405,3.422453,3.381999,0.5286014
5407,3.475981,3.431937,0.5570779
5410,3.475981,3.431937,0.5570779
5412,3.557049,3.507327,0.5997046
5414,3.550162,3.498775,0.608772
5417,3.550162,3.498775,0.608772
5420,3.540939,3.487004,0.6236961
5422,3.540939,3.487004,0.6236961
5425,3.545968,3.493007,0.6183397
5427,3.545968,3.493007,0.6183397
5429,3.554516,3.502914,0.6116581
5432,3.56156,3.511065,0.6049027
5434,3.56156,3.511065,0.6049027
5436,3.572867,3.523979,0.5957764
5439,3.572867,3.523979,0.5957764
5441,3.577522,3.529197,0.5928131
5443,3.697294,3.646797,0.6170725
5446,3.697294,3.646797,0.6170725
5448,3.770605,3.718733,0.6327289
5450,3.770605,3.718733,0.6327289
5453,3.832467,3.779371,0.64589
5455,3.832467,3.779371,0.64589
5457,3.939599,3.884537,0.6682253
5460,3.986492,3.930542,0.6778198
5463,3.986492,3.930542,0.6778198
5465,4.069145,4.011906,0.6932335
5468,4.069145,4.011906,0.6932335
5470,4.105178,4.047382,0.6996954
5472,4.160148,4.102028,0.7069291
5475,4.160148,4.102028,0.7069291
5477,4.181981,4.12393,0.708588
5479,4.181981,4.12393,0.708588
5482,4.213194,4.154825,0.7127182
5484,4.213194,4.154825,0.7127182
5486,4.266776,4.207659,0.7200928
5489,4.288433,4.229108,0.7222635
5491,4.288433,4.229108,0.7222635
5493,4.328436,4.268612,0.7273927
5495,4.328436,4.268612,0.7273927
5498,4.34005,4.280067,0.7284679
5500,4.364081,4.303796,0.7314168
5502,4.364081,4.303796,0.7314168
5506,4.354692,4.294958,0.7273927
5508,4.354692,4.294958,0.7273927
5510,4.347219,4.288113,0.7228051
5513,4.347219,4.288113,0.7228051
5515,4.347264,4.288387,0.7217214
5517,4.357345,4.298195,0.7228051
5520,4.357345,4.298195,0.7228051
5522,4.363857,4.30457,0.7238871
5524,4.363857,4.30457,0.7238871
5527,4.374884,4.315476,0.7252374
5529,4.374884,4.315476,0.7252374
5531,4.381684,4.322142,0.7263159
5534,4.390124,4.330833,0.7246976
5536,4.390124,4.330833,0.7246976
5538,4.39543,4.336257,0.7249676
5541,4.39543,4.336257,0.7249676
5543,4.401842,4.342531,0.7257769
5545,4.406467,4.347039,0.7263159
5549,4.406467,4.347039,0.7263159
5551,4.415392,4.35622,0.7238871
5553,4.415392,4.35622,0.7238871
5556,4.420446,4.361298,0.7233464
5558,4.420446,4.361298,0.7233464
5560,4.445763,4.387312,0.719821
5563,4.456896,4.398682,0.7187329
5565,4.456896,4.398682,0.7187329
5567,4.481133,4.423813,0.7146374
5570,4.481133,4.423813,0.7146374
5572,4.492395,4.435353,0.7132671
5574,4.512885,4.456764,0.708588
5577,4.512885,4.456764,0.708588
5579,4.522337,4.466554,0.7069291
5581,4.522337,4.466554,0.7069291
5583,4.54993,4.495273,0.7019292
5586,4.54993,4.495273,0.7019292
5588,4.562097,4.507891,0.699975
5591,4.588768,4.53583,0.6946434
5594,4.588768,4.53583,0.6946434
5596,4.600832,4.548294,0.6926687
5598,4.600832,4.548294,0.6926687
5601,4.602918,4.550446,0.6926687
5603,4.610954,4.558489,0.6926687
5605,4.610954,4.558489,0.6926687
5608,4.605428,4.55277,0.6935157
5610,4.605428,4.55277,0.6935157
5612,4.594613,4.541354,0.6963314
5615,4.594613,4.541354,0.6963314
5617,4.589451,4.53583,0.6982958
5619,4.585566,4.53138,0.7008132
5622,4.585566,4.53138,0.7008132
5624,4.568833,4.514317,0.7022079
5626,4.568833,4.514317,0.7022079
5629,4.546872,4.491829,0.7038778
5632,4.546872,4.491829,0.7038778
5634,4.52264,4.46708,0.7058211
5637,4.488645,4.432261,0.7091401
5639,4.488645,4.432261,0.7091401
5641,4.465545,4.408733,0.7102429
5644,4.465545,4.408733,0.7102429
5646,4.432394,4.374929,0.7129927
5648,4.413352,4.355501,0.7140896
5651,4.413352,4.355501,0.7140896
5653,4.386062,4.327712,0.7160051
5655,4.386062,4.327712,0.7160051
5658,4.372287,4.313614,0.7170975
5660,4.372287,4.313614,0.7170975
5662,4.352577,4.293454,0.7192771
5665,4.344921,4.285646,0.7203645
5667,4.344921,4.285646,0.7203645
5669,4.334043,4.274389,0.7217214
5671,4.334043,4.274389,0.7217214
5675,4.330969,4.271364,0.7222635
5677,4.326671,4.267051,0.7230757
5679,4.326671,4.267051,0.7230757
5682,4.326219,4.266593,0.7230757
5684,4.326219,4.266593,0.7230757
5686,4.325539,4.266088,0.7230757
5689,4.325539,4.266088,0.7230757
5691,4.327078,4.267923,0.7217214
5693,4.329432,4.270676,0.719821
5696,4.329432,4.270676,0.719821
5698,4.332823,4.274435,0.7181882
5700,4.332823,4.274435,0.7181882
5703,4.335535,4.277366,0.7170975
5705,4.335535,4.277366,0.7170975
5707,4.349066,4.291857,0.7132671
5710,4.366101,4.309799,0.709416
5712,4.366101,4.309799,0.709416
5714,4.372108,4.316066,0.7083117
5718,4.372108,4.316066,0.7083117
5720,4.381371,4.32572,0.7060983
5722,4.389901,4.33454,0.7044336
5725,4.389901,4.33454,0.7044336
5727,4.402732,4.347895,0.7016503
5729,4.402732,4.347895,0.7016503
5732,4.417166,4.362645,0.6996954
5734,4.417166,4.362645,0.6996954
5736,4.439326,4.385482,0.6968932
5739,4.453994,4.400373,0.6957693
5741,4.453994,4.400373,0.6957693
5743,4.466554,4.413218,0.694925
5746,4.466554,4.413218,0.694925
5748,4.488993,4.43606,0.6932335
5750,4.507543,4.454786,0.6921035
5753,4.507543,4.454786,0.6921035
5755,4.523636,4.4712,0.6912548
5757,4.523636,4.4712,0.6912548
5760,4.537428,4.48524,0.690405
5763,4.537428,4.48524,0.690405
5765,4.557113,4.505283,0.6889865
5767,4.5642,4.512451,0.6887025
5770,4.570633,4.519001,0.6878495
5772,4.574574,4.523073,0.6864257
5774,4.574574,4.523073,0.6864257
5777,4.581975,4.530775,0.6844273
5779,4.585523,4.534405,0.6835691
5781,4.585523,4.534405,0.6835691
5784,4.588128,4.537126,0.6821364
5786,4.588128,4.537126,0.6821364
5788,4.590005,4.539068,0.6815624
5791,4.590005,4.539068,0.6815624
5793,4.562569,4.512971,0.6711472
5795,4.553071,4.504022,0.667053
5798,4.553071,4.504022,0.667053
5800,4.540405,4.492134,0.6617518
5803,4.540405,4.492134,0.6617518
5806,4.51692,4.469666,0.6540186
5808,4.51692,4.469666,0.6540186
5810,4.506196,4.459356,0.6507192
5813,4.493791,4.447481,0.6477052
5815,4.493791,4.447481,0.6477052
5817,4.488382,4.442325,0.6464956
5820,4.488382,4.442325,0.6464956
5822,4.486593,4.440694,0.645587
5824,4.491742,4.445983,0.6464956
5827,4.491742,4.445983,0.6464956
5829,4.49366,4.448009,0.6464956
5831,4.49366,4.448009,0.6464956
5834,4.500411,4.45483,0.6464956
5836,4.500411,4.45483,0.6464956
5838,4.502934,4.457511,0.6467983
5840,4.5075,4.461946,0.6477052
5843,4.5075,4.461946,0.6477052
5846,4.509238,4.463658,0.6480073
5848,4.509238,4.463658,0.6480073
5851,4.502891,4.457731,0.6434618
5853,4.500803,4.455753,0.6422443
5855,4.500803,4.455753,0.6422443
5858,4.519521,4.473958,0.6449805
5860,4.519521,4.473958,0.6449805
5862,4.526753,4.481045,0.64589
5865,4.526753,4.481045,0.64589
5867,4.513145,4.467606,0.6413296
5869,4.508282,4.462956,0.6398023
5872,4.508282,4.462956,0.6398023
5874,4.511843,4.465896,0.6425489
5876,4.511843,4.465896,0.6425489
5879,4.513059,4.466992,0.6434618
5881,4.51848,4.471331,0.6495153
5883,4.51848,4.471331,0.6495153
5886,4.520431,4.472908,0.6513204
5889,4.520431,4.472908,0.6513204
5891,4.525628,4.477372,0.6558113
5894,4.525628,4.477372,0.6558113
5896,4.527401,4.478947,0.6570037
5898,4.533454,4.484279,0.6608641
5901,4.533454,4.484279,0.6608641
5903,4.535528,4.4862,0.6620474
5905,4.535528,4.4862,0.6620474
5908,4.545148,4.495665,0.6629335
5910,4.545148,4.495665,0.6629335
5912,4.548638,4.499018,0.6632286
5915,4.555652,4.506196,0.6632286
5917,4.555652,4.506196,0.6632286
5919,4.56583,4.516486,0.6626383
5922,4.56583,4.516486,0.6626383
5924,4.570076,4.520864,0.6626383
5926,4.576243,4.527142,0.6626383
5928,4.576243,4.527142,0.6626383
5932,4.586334,4.537428,0.6623429
5934,4.586334,4.537428,0.6623429
5936,4.586334,4.537428,0.6623429
5939,4.586334,4.537428,0.6623429
5941,4.595891,4.547131,0.6629335
5943,4.603897,4.555222,0.6632286
5946,4.603897,4.555222,0.6632286
5948,4.609807,4.561324,0.6632286
5950,4.609807,4.561324,0.6632286
5953,4.618892,4.570675,0.6635236
5955,4.605258,4.556598,0.6649964
5957,4.605258,4.556598,0.6649964
5960,4.584754,4.535485,0.6676395
5962,4.584754,4.535485,0.6676395
5964,4.57603,4.526579,0.6688108
5967,4.57603,4.526579,0.6688108
5969,4.562655,4.513015,0.6702721
5971,4.555996,4.505935,0.6728944
5975,4.555996,4.505935,0.6728944
5977,4.545838,4.495098,0.6763749
5979,4.545838,4.495098,0.6763749
5982,4.543683,4.492483,0.6795497
5984,4.543683,4.492483,0.6795497
5986,4.539931,4.488121,0.6832828
5989,4.539931,4.487554,0.6872803
5991,4.539931,4.487554,0.6872803
5993,4.539456,4.486156,0.6923862
5996,4.539456,4.486156,0.6923862
5998,4.539154,4.48537,0.6960504
6000,4.538248,4.483624,0.7010924
6003,4.538248,4.483624,0.7010924
6005,4.540837,4.48572,0.7041557
6007,4.540837,4.48572,0.7041557
6010,4.544071,4.488164,0.709416
6012,4.544071,4.488164,0.709416
6014,4.546786,4.490433,0.7124436
6017,4.550274,4.493224,0.7168246
6020,4.550274,4.493224,0.7168246
6022,4.555007,4.497712,0.7184606
6024,4.555007,4.497712,0.7184606
6027,4.558661,4.501151,0.719821
6029,4.567847,4.509933,0.7222635
6031,4.567847,4.509933,0.7222635
6034,4.572818,4.514837,0.7236168
6036,4.572818,4.514837,0.7236168
6038,4.581933,4.52368,0.7257769
6041,4.581933,4.52368,0.7257769
6043,4.585949,4.527618,0.7265852
6045,4.591542,4.533065,0.7279305
6048,4.591542,4.533065,0.7279305
6050,4.591968,4.533584,0.7276617
6052,4.591968,4.533584,0.7276617
6055,4.592395,4.534016,0.7271236
6057,4.598831,4.540449,0.7281993
6060,4.598831,4.540449,0.7281993
6063,4.60096,4.542562,0.7284679
6065,4.60096,4.542562,0.7284679
6067,4.605131,4.546441,0.7314168
6070,4.605131,4.546441,0.7314168
6072,4.606576,4.54769,0.7324861
6074,4.6138,4.555007,0.7327532
6077,4.6138,4.555007,0.7327532
6079,4.62419,4.565402,0.7338206
6081,4.62419,4.565402,0.7338206
6084,4.639161,4.580565,0.7343537
6086,4.639161,4.580565,0.7343537
6088,4.661528,4.603216,0.7354187
6091,4.674495,4.616813,0.7327532
6093,4.674495,4.616813,0.7327532
6095,4.695443,4.638824,0.7287365
6098,4.695443,4.638824,0.7287365
6100,4.703946,4.647725,0.7271236
6103,4.710979,4.655137,0.7257769
6105,4.710979,4.655137,0.7257769
6108,4.695151,4.641061,0.7151849
6110,4.695151,4.641061,0.7151849
6112,4.684584,4.631681,0.707759
6115,4.684584,4.631681,0.707759
6117,4.686924,4.634049,0.7074825
6119,4.688596,4.635824,0.7074825
6122,4.688596,4.635824,0.7074825
6124,4.660225,4.607979,0.7016503
6126,4.660225,4.607979,0.7016503
6129,4.649284,4.597212,0.6994157
6131,4.612823,4.56171,0.6898379
6133,4.612823,4.56171,0.6898379
6136,4.598575,4.54782,0.6858553
6138,4.598575,4.54782,0.6858553
6140,4.583984,4.533368,0.6827098
6144,4.583984,4.533368,0.6827098
6146,4.581163,4.530472,0.6821364
6148,4.550618,4.500324,0.6755064
6151,4.550618,4.500324,0.6755064
6153,4.538248,4.488121,0.6728944
6155,4.527229,4.477328,0.6702721
6158,4.526277,4.476016,0.6711472
6160,4.526277,4.476016,0.6711472
6162,4.524502,4.474002,0.6717301
6165,4.525281,4.474046,0.6746368
6167,4.525281,4.474046,0.6746368
6169,4.526796,4.475184,0.6766641
6172,4.526796,4.475184,0.6766641
6174,4.531769,4.479646,0.6792617
6176,4.534708,4.4824,0.6801254
6179,4.534708,4.4824,0.6801254
6181,4.537859,4.485283,0.6821364
6183,4.537859,4.485283,0.6821364
6187,4.540061,4.48703,0.6841414
6189,4.540061,4.48703,0.6841414
6191,4.539758,4.486637,0.6847132
6193,4.537471,4.484235,0.6852845
6196,4.537471,4.484235,0.6852845
6198,4.534578,4.481176,0.6864257
6200,4.534578,4.481176,0.6864257
6203,4.52857,4.475053,0.6872803
6205,4.492701,4.438929,0.6864257
6207,4.492701,4.438929,0.6864257
6210,4.436016,4.381997,0.6838553
6212,4.436016,4.381997,0.6838553
6214,4.420624,4.366325,0.6849989
6217,4.420624,4.366325,0.6849989
6219,4.394717,4.340095,0.6861406
6221,4.367984,4.313796,0.6827098
6224,4.367984,4.313796,0.6827098
6226,4.324362,4.270951,0.6766641
6228,4.324362,4.270951,0.6766641
6232,4.30648,4.253306,0.6743467
6234,4.258644,4.206495,0.6667597
6236,4.258644,4.206495,0.6667597
6239,4.238499,4.186755,0.6635236
6241,4.238499,4.186755,0.6635236
6243,4.232025,4.180108,0.6652907
6246,4.232025,4.180108,0.6652907
6248,4.227302,4.175373,0.6652907
6250,4.234385,4.182121,0.6682253
6253,4.234385,4.182121,0.6682253
6255,4.234755,4.182449,0.6688108
6257,4.234755,4.182449,0.6688108
6260,4.22044,4.16913,0.6635236
6262,4.22044,4.16913,0.6635236
6264,4.229526,4.17814,0.6649964
6267,4.239562,4.188158,0.6661724
6269,4.239562,4.188158,0.6661724
6272,4.241686,4.190355,0.6664661
6275,4.241686,4.190355,0.6664661
6277,4.268658,4.21719,0.6705639
6279,4.277229,4.225727,0.6717301
6281,4.277229,4.225727,0.6717301
6284,4.275488,4.224522,0.6693957
6286,4.275488,4.224522,0.6693957
6288,4.273427,4.222759,0.6679325
6291,4.273427,4.222759,0.6679325
6293,4.284732,4.233644,0.6711472
6295,4.30234,4.250082,0.6786853
6298,4.30234,4.250082,0.6786853
6300,4.309163,4.256114,0.6832828
6302,4.309163,4.256114,0.6832828
6305,4.321825,4.26719,0.6918207
6307,4.327576,4.272097,0.6957693
6309,4.327576,4.272097,0.6957693
6312,4.344785,4.288067,0.7022079
6315,4.344785,4.288067,0.7022079
6317,4.354692,4.297603,0.7044336
6320,4.354692,4.297603,0.7044336
6322,4.38307,4.325675,0.7074825
6324,4.399795,4.342396,0.708588
6327,4.399795,4.342396,0.708588
6329,4.43235,4.375153,0.7096917
6331,4.43235,4.375153,0.7096917
6334,4.447965,4.390927,0.7099674
6336,4.471156,4.414328,0.7099674
6338,4.471156,4.414328,0.7099674
6341,4.481176,4.424521,0.7099674
6343,4.481176,4.424521,0.7099674
6345,4.489517,4.432968,0.7096917
6348,4.497407,4.440914,0.7096917
6350,4.503978,4.447569,0.7102429
6352,4.509455,4.453115,0.7099674
6355,4.509455,4.453115,0.7099674
6358,4.519781,4.463527,0.7102429
6360,4.519781,4.463527,0.7102429
6363,4.524545,4.468307,0.7102429
6365,4.524545,4.468307,0.7102429
6367,4.536003,4.479734,0.7107937
6369,4.540319,4.484104,0.711069
6372,4.540319,4.484104,0.711069
6374,4.550446,4.494314,0.7113441
6376,4.550446,4.494314,0.7113441
6379,4.554276,4.49819,0.711069
6381,4.561495,4.5055,0.711069
6383,4.561495,4.5055,0.711069
6386,4.564887,4.508934,0.7113441
6388,4.564887,4.508934,0.7113441
6390,4.566646,4.510671,0.7105184
6393,4.566646,4.510671,0.7105184
6395,4.567418,4.511496,0.7105184
6397,4.572732,4.517136,0.7080355
6401,4.572732,4.517136,0.7080355
6403,4.574745,4.519304,0.7072059
6405,4.576415,4.521167,0.7063754
6408,4.580394,4.525541,0.7041557
6410,4.583728,4.529132,0.7024865
6412,4.583728,4.529132,0.7024865
6415,4.589067,4.535009,0.6991359
6417,4.589067,4.535009,0.6991359
6419,4.591157,4.537385,0.6974546
6422,4.591157,4.537385,0.6974546
6424,4.595379,4.542217,0.6940797
6426,4.597383,4.544502,0.6923862
6429,4.597383,4.544502,0.6923862
6431,4.598958,4.5467,0.6884183
6433,4.598958,4.5467,0.6884183
6436,4.59964,4.547605,0.6867107
6438,4.59964,4.547605,0.6867107
6440,4.596999,4.545407,0.6841414
6444,4.596189,4.544761,0.6824232
6446,4.596189,4.544761,0.6824232
6448,4.595209,4.543942,0.6807005
6450,4.595209,4.543942,0.6807005
6453,4.598107,4.547131,0.6798376
6455,4.596658,4.545709,0.6798376
6457,4.596658,4.545709,0.6798376
6460,4.593631,4.542605,0.6807005
6462,4.593631,4.542605,0.6807005
6464,4.591286,4.540147,0.6807005
6467,4.591286,4.540147,0.6807005
6469,4.577228,4.525368,0.6844273
6471,4.572261,4.520171,0.6858553
6474,4.5645,4.512017,0.6887025
6476,4.558445,4.5055,0.6906884
6478,4.558445,4.5055,0.6906884
6481,4.551221,4.497668,0.6937978
6483,4.541009,4.486506,0.6994157
6486,4.541009,4.486506,0.6994157
6489,4.540276,4.485327,0.7019292
6491,4.540276,4.485327,0.7019292
6493,4.53937,4.483798,0.7058211
6496,4.53937,4.483798,0.7058211
6498,4.542821,4.486942,0.707759
6500,4.547863,4.491611,0.7105184
6503,4.547863,4.491611,0.7105184
6505,4.553975,4.497581,0.7121689
6507,4.553975,4.497581,0.7121689
6510,4.562955,4.506239,0.7146374
6512,4.566174,4.509411,0.7151849
6514,4.566174,4.509411,0.7151849
6517,4.574146,4.51718,0.7170975
6519,4.574146,4.51718,0.7170975
6521,4.577528,4.520388,0.7179157
6524,4.577528,4.520388,0.7179157
6526,4.582574,4.525195,0.7192771
6529,4.584369,4.526926,0.719821
6532,4.584369,4.526926,0.719821
6534,4.587743,4.530386,0.7192771
6536,4.587743,4.530386,0.7192771
6538,4.588939,4.531596,0.7187329
6541,4.588939,4.531596,0.7187329
6543,4.594697,4.537557,0.7187329
6545,4.596871,4.539715,0.7187329
6548,4.596871,4.539715,0.7187329
6550,4.605981,4.549241,0.717643
6552,4.605981,4.549241,0.717643
6555,4.609255,4.552727,0.7173703
6557,4.613672,4.557415,0.7154584
6559,4.613672,4.557415,0.7154584
6562,4.615243,4.559133,0.7151849
6564,4.615243,4.559133,0.7151849
6566,4.618807,4.562998,0.7140896
6569,4.618807,4.562998,0.7140896
6572,4.620121,4.564415,0.7138155
6574,4.594995,4.540708,0.7041557
6577,4.594995,4.540708,0.7041557
6579,4.585523,4.531726,0.7005339
6581,4.585523,4.531726,0.7005339
6584,4.586761,4.533152,0.6996954
6586,4.587444,4.534189,0.6977351
6588,4.587444,4.534189,0.6977351
6591,4.577014,4.524285,0.6940797
6593,4.577014,4.524285,0.6940797
6595,4.559992,4.508064,0.6884183
6598,4.559992,4.508064,0.6884183
6600,4.550145,4.498626,0.6855699
6602,4.550145,4.498626,0.6855699
6605,4.550145,4.498626,0.6855699
6607,4.54088,4.489866,0.6827098
6609,4.54088,4.489866,0.6827098
6612,4.532849,4.482225,0.6798376
6615,4.532849,4.482225,0.6798376
6617,4.522294,4.472251,0.6766641
6620,4.51796,4.468088,0.6752167
6622,4.51796,4.468088,0.6752167
6624,4.514794,4.465106,0.6746368
6626,4.514794,4.465106,0.6746368
6629,4.50889,4.459488,0.6726035
6631,4.508108,4.458873,0.6714388
6633,4.508108,4.458873,0.6714388
6636,4.505587,4.456764,0.6691033
6638,4.505587,4.456764,0.6691033
6640,4.505239,4.456676,0.6676395
6643,4.505239,4.456676,0.6676395
6645,4.503761,4.455489,0.6655847
6647,4.502195,4.454214,0.6638185
6650,4.502195,4.454214,0.6638185
6652,4.499148,4.451443,0.6611602
6654,4.499148,4.451443,0.6611602
6658,4.513796,4.46572,0.6638185
6660,4.535182,4.486681,0.6676395
6662,4.535182,4.486681,0.6676395
6665,4.532288,4.484017,0.6652907
6667,4.532288,4.484017,0.6652907
6669,4.527661,4.479865,0.6620474
6672,4.527661,4.479865,0.6620474
6674,4.535269,4.487379,0.6626383
6676,4.545838,4.497842,0.6638185
6679,4.545838,4.497842,0.6638185
6681,4.556168,4.508021,0.6652907
6683,4.556168,4.508021,0.6652907
6686,4.570719,4.522337,0.667053
6688,4.563814,4.515965,0.6638185
6690,4.563814,4.515965,0.6638185
6693,4.552684,4.505544,0.6587883
6695,4.552684,4.505544,0.6587883
6697,4.563513,4.516486,0.659382
6701,4.563513,4.516486,0.659382
6703,4.578939,4.532072,0.6596788
6705,4.583129,4.536737,0.6575991
6708,4.583129,4.536737,0.6575991
6710,4.589024,4.543381,0.6546168
6712,4.589024,4.543381,0.6546168
6714,4.59103,4.545666,0.6531205
6717,4.59103,4.545666,0.6531205
6719,4.587359,4.542648,0.6498165
6721,4.586035,4.54157,0.6480073
6724,4.586035,4.54157,0.6480073
6726,4.581291,4.537471,0.6434618
6728,4.581291,4.537471,0.6434618
6731,4.579581,4.53596,0.6416347
6733,4.573289,4.530861,0.6324196
6735,4.573289,4.530861,0.6324196
6738,4.571062,4.529002,0.629007
6740,4.571062,4.529002,0.629007
6743,4.558661,4.519391,0.607807
6746,4.558661,4.519391,0.607807
6748,4.554018,4.515836,0.6003569
6750,4.532245,4.494488,0.5934729
6753,4.532245,4.494488,0.5934729
6755,4.541398,4.503152,0.5961047
6757,4.541398,4.503152,0.5961047
6760,4.548853,4.510236,0.598071
6762,4.55079,4.511756,0.5997046
6764,4.55079,4.511756,0.5997046
6767,4.547346,4.508152,0.5993783
6769,4.547346,4.508152,0.5993783
6771,4.552469,4.512624,0.6032831
6774,4.552469,4.512624,0.6032831
6776,4.559004,4.518654,0.6065179
6778,4.568789,4.527791,0.6106976
6781,4.568789,4.527791,0.6106976
6784,4.579068,4.537514,0.6145305
6786,4.579068,4.537514,0.6145305
6789,4.594186,4.551909,0.6199199
6791,4.603726,4.560207,0.6296288
6793,4.603726,4.560207,0.6296288
6796,4.607299,4.563299,0.6330382
6798,4.607299,4.563299,0.6330382
6800,4.620502,4.575644,0.6404136
6802,4.620502,4.575644,0.6404136
6805,4.640385,4.594314,0.6513204
6807,4.653832,4.607342,0.6561096
6809,4.653832,4.607342,0.6561096
6812,4.682618,4.635655,0.6638185
6814,4.682618,4.635655,0.6638185
6816,4.697278,4.65021,0.667053
6819,4.697278,4.65021,0.667053
6821,4.719744,4.672441,0.6717301
6823,4.7352,4.688387,0.6711472
6827,4.7352,4.688387,0.6711472
6829,4.759216,4.71314,0.6702721
6831,4.759216,4.71314,0.6702721
6834,4.774668,4.729156,0.6693957
6836,4.798732,4.753945,0.6682253
6838,4.798732,4.753945,0.6682253
6841,4.817678,4.773602,0.6664661
6843,4.817678,4.773602,0.6664661
6845,4.847311,4.804281,0.6641131
6848,4.847311,4.804281,0.6641131
6850,4.863975,4.821742,0.6608641
6852,4.890325,4.849211,0.6567059
6855,4.890325,4.849211,0.6567059
6857,4.892167,4.851997,0.6507192
6859,4.892167,4.851997,0.6507192
6862,4.89621,4.857566,0.6419396
6864,4.89621,4.858252,0.6373509
6866,4.89621,4.858252,0.6373509
6870,4.89661,4.85926,0.6333472
6872,4.89661,4.85926,0.6333472
6874,4.89609,4.85934,0.628073
6877,4.89609,4.85934,0.628073
6879,4.89533,4.858857,0.6258884
6881,4.928713,4.891566,0.6296288
6884,4.928713,4.891566,0.6296288
6886,4.941733,4.904446,0.6308707
6888,4.941733,4.904446,0.6308707
6890,4.97256,4.934711,0.6342734
6893,4.97256,4.934711,0.6342734
6895,5.003432,4.965069,0.6373509
6897,5.018095,4.97945,0.6388841
6900,5.018095,4.97945,0.6388841
6902,5.031041,4.992143,0.6404136
6904,5.031041,4.992143,0.6404136
6907,5.049117,5.010124,0.640108
6909,5.055321,5.016416,0.6391903
6912,5.055321,5.016416,0.6391903
6915,5.060899,5.022193,0.6373509
6917,5.060899,5.022193,0.6373509
6919,5.061635,5.022973,0.6361217
6922,5.061635,5.022973,0.6361217
6924,5.041311,5.00355,0.6274496
6926,5.024104,4.987038,0.6208661
6929,5.024104,4.987038,0.6208661
6931,4.977876,4.942407,0.6061952
6933,4.977876,4.942407,0.6061952
6936,4.951318,4.916654,0.5983981
6938,4.894489,4.861033,0.5855064
6940,4.894489,4.861033,0.5855064
6943,4.865344,4.832294,0.5804718
6945,4.865344,4.832294,0.5804718
6947,4.802283,4.769495,0.5736903
6950,4.802283,4.769495,0.5736903
6952,4.769948,4.736979,0.5716401
6955,4.70736,4.674034,0.5678623
6958,4.70736,4.674034,0.5678623
6960,4.677344,4.64393,0.5657911
6962,4.677344,4.64393,0.5657911
6965,4.627492,4.594911,0.5546138
6967,4.606066,4.574274,0.5464389
6969,4.606066,4.574274,0.5464389
6972,4.568147,4.538162,0.53008
6974,4.568147,4.538162,0.53008
6976,4.551479,4.522337,0.5222706
6978,4.551479,4.522337,0.5222706
6981,4.53596,4.50763,0.5147229
6983,4.513796,4.48703,0.5008504
6985,4.513796,4.48703,0.5008504
6988,4.503457,4.477328,0.4949555
6990,4.503457,4.477328,0.4949555
6992,4.491393,4.466378,0.4853748
6995,4.491393,4.466378,0.4853748
6998,4.484541,4.459971,0.4813265
7000,4.484235,4.460498,0.4751895
7003,4.484235,4.460498,0.4751895
7005,4.482225,4.458828,0.4722982
7007,4.482225,4.458828,0.4722982
7010,4.501803,4.47969,0.4643598
7012,4.507152,4.485589,0.4605518
7014,4.507152,4.485589,0.4605518
7017,4.520864,4.497842,0.4735395
7019,4.520864,4.497842,0.4735395
7021,4.524502,4.500977,0.4776538
7024,4.524502,4.500977,0.4776538
7026,4.551264,4.527834,0.4792896
7028,4.559906,4.536521,0.4796977
7031,4.559906,4.536521,0.4796977
7033,4.589024,4.563985,0.4945601
7035,4.589024,4.563985,0.4945601
7038,4.598788,4.573161,0.4996771
7041,4.627873,4.601003,0.5135812
7043,4.627873,4.601003,0.5135812
7046,4.638063,4.610784,0.518133
7048,4.638063,4.610784,0.518133
7050,4.661738,4.633965,0.5248867
7053,4.661738,4.633965,0.5248867
7055,4.670009,4.642074,0.5278606
7057,4.692563,4.664637,0.5311863
7059,4.692563,4.664637,0.5311863
7062,4.700488,4.672483,0.5326577
7064,4.700488,4.672483,0.5326577
7066,4.717128,4.689264,0.5341251
7069,4.722939,4.695109,0.5352231
7071,4.722939,4.695109,0.5352231
7073,4.73458,4.70686,0.5366834
7076,4.73458,4.70686,0.5366834
7078,4.738591,4.710937,0.5370479
7080,4.738591,4.710937,0.5370479
7084,4.747182,4.719412,0.5406791
7086,4.750153,4.722275,0.5421248
7088,4.750153,4.722275,0.5421248
7091,4.758723,4.73073,0.5442861
7093,4.758723,4.73073,0.5442861
7095,4.761686,4.733669,0.5453635
7098,4.761686,4.733669,0.5453635
7100,4.774996,4.746398,0.5510744
7102,4.77963,4.750895,0.5535544
7105,4.77963,4.750895,0.5535544
7107,4.78917,4.75971,0.5595313
7109,4.78917,4.75971,0.5595313
7112,4.793872,4.763907,0.5630175
7114,4.802446,4.771549,0.5712977
7116,4.802446,4.771549,0.5712977
7119,4.806401,4.774914,0.5764125
7121,4.806401,4.774914,0.5764125
7123,4.815197,4.782457,0.5875081
7127,4.815197,4.782457,0.5875081
7129,4.818328,4.78516,0.5914913
7131,4.823164,4.789047,0.598725
7134,4.823164,4.789047,0.598725
7136,4.824829,4.790479,0.6013339
7138,4.824829,4.790479,0.6013339
7141,4.844118,4.808723,0.608772
7143,4.859018,4.822961,0.6132555
7145,4.859018,4.822961,0.6132555
7147,4.870254,4.833632,0.6170725
7150,4.870254,4.833632,0.6170725
7152,4.86961,4.832902,0.6167554
7154,4.86961,4.832902,0.6167554
7157,4.863813,4.827143,0.6158028
7159,4.859582,4.823042,0.6145305
7161,4.859582,4.823042,0.6145305
7164,4.847716,4.811859,0.6081289
7166,4.847716,4.811859,0.6081289
7169,4.843633,4.808113,0.6061952
7172,4.843633,4.808113,0.6061952
7174,4.856397,4.820727,0.6084505
7176,4.876163,4.840315,0.6119779
7179,4.876163,4.840315,0.6119779
7181,4.883951,4.847958,0.6132555
7183,4.883951,4.847958,0.6132555
7186,4.887841,4.853088,0.6065179
7188,4.891006,4.857526,0.5974163
7190,4.891006,4.857526,0.5974163
7193,4.892327,4.859502,0.591822
7195,4.892327,4.859502,0.591822
7197,4.910514,4.878492,0.587175
7200,4.910514,4.878492,0.587175
7202,4.939354,4.908319,0.5804718
7204,4.950843,4.920199,0.5781073
7207,4.950843,4.920199,0.5781073
7209,4.956933,4.927719,0.5675176
7212,4.956933,4.927719,0.5675176
7215,4.954522,4.926128,0.5616257
7217,4.953059,4.92581,0.5528469
7219,4.953059,4.92581,0.5528469
7222,4.953652,4.926804,0.5496522
7224,4.953652,4.926804,0.5496522
7226,4.951318,4.925731,0.5414024
7229,4.951318,4.925731,0.5414024
7231,4.946369,4.921791,0.5352231
7233,4.943081,4.918885,0.5322903
7235,4.943081,4.918885,0.5322903
7238,4.936497,4.913146,0.5282311
7240,4.936497,4.913146,0.5282311
7242,4.933441,4.910434,0.5263757
7245,4.931534,4.908838,0.5248867
7247,4.931534,4.908838,0.5248867
7249,4.922747,4.900809,0.5218958
7252,4.922747,4.900809,0.5218958
7255,4.920319,4.89865,0.5207698
7257,4.915419,4.894169,0.5192646
7260,4.91195,4.891086,0.5173771
7262,4.909716,4.889123,0.5166202
7264,4.909716,4.889123,0.5166202
7267,4.902248,4.882387,0.5135812
7269,4.902248,4.882387,0.5135812
7271,4.902248,4.882387,0.5135812
7274,4.902248,4.882387,0.5135812
7276,4.902248,4.882387,0.5135812
7278,4.917052,4.89697,0.5169988
7281,4.917052,4.89697,0.5169988
7283,4.933917,4.914342,0.518133
7285,4.933917,4.914342,0.518133
7288,4.94094,4.921513,0.5188877
7290,4.954403,4.935664,0.5169988
7292,4.954403,4.935664,0.5169988
7296,4.960213,4.941654,0.5166202
7298,4.960213,4.941654,0.5166202
7300,4.999398,4.980394,0.5237671
7303,4.999398,4.980394,0.5237671
7305,5.015127,4.995948,0.5263757
7307,5.102961,5.084305,0.5237671
7310,5.102961,5.084305,0.5237671
7312,5.137325,5.11887,0.5230194
7314,5.137325,5.11887,0.5230194
7317,5.220784,5.202587,0.5218958
7319,5.254006,5.235924,0.5218958
7321,5.254006,5.235924,0.5218958
7323,5.316144,5.298311,0.5207698
7326,5.316144,5.298311,0.5207698
7328,5.342068,5.324321,0.5203939
7330,5.342068,5.324321,0.5203939
7333,5.377385,5.359134,0.5230194
7335,5.39336,5.374944,0.5245137
7337,5.39336,5.374944,0.5245137
7341,5.420975,5.401456,0.530449
7343,5.420975,5.401456,0.530449
7345,5.434045,5.414211,0.5326577
7348,5.434045,5.414211,0.5326577
7350,5.455856,5.434839,0.5388666
7352,5.466513,5.445106,0.5410409
7355,5.466513,5.445106,0.5410409
7357,5.469273,5.447012,0.5460806
7359,5.469273,5.447012,0.5460806
7362,5.478187,5.454706,0.5532007
7364,5.447408,5.420614,0.5764125
7366,5.447408,5.420614,0.5764125
7369,5.438227,5.410156,0.5851721
7371,5.438227,5.410156,0.5851721
7373,5.409142,5.378005,0.6061952
7376,5.409142,5.378005,0.6061952
7378,5.400186,5.367902,0.614212
7380,5.388307,5.354671,0.6227542
7384,5.388307,5.354671,0.6227542
7386,5.374178,5.338545,0.6364292
7388,5.374178,5.338545,0.6364292
7391,5.367246,5.330647,0.6422443
7393,5.359646,5.321634,0.6513204
7395,5.359646,5.321634,0.6513204
7398,5.357598,5.318908,0.6558113
7400,5.357598,5.318908,0.6558113
7402,5.356647,5.316956,0.6626383
7405,5.356647,5.316956,0.6626383
7407,5.358183,5.318024,0.6649964
7409,5.362351,5.321597,0.6691033
7411,5.362351,5.321597,0.6691033
7414,5.364287,5.32318,0.6717301
7416,5.364287,5.32318,0.6717301
7418,5.368742,5.327118,0.6755064
7421,5.37126,5.329361,0.6772422
7424,5.37126,5.329361,0.6772422
7426,5.369289,5.327118,0.6789736
7429,5.369289,5.327118,0.6789736
7431,5.369399,5.327081,0.6801254
7433,5.369399,5.327081,0.6801254
7436,5.362789,5.320161,0.6818494
7438,5.361181,5.318393,0.6824232
7440,5.361181,5.318393,0.6824232
7443,5.353976,5.310945,0.6835691
7445,5.353976,5.310945,0.6835691
7447,5.352072,5.308952,0.6838553
7450,5.352072,5.308952,0.6838553
7452,5.341738,5.298275,0.6847132
7454,5.338545,5.295093,0.6849989
7457,5.338545,5.295093,0.6849989
7459,5.362314,5.320603,0.6714388
7461,5.362314,5.320603,0.6714388
7464,5.37199,5.330905,0.6667597
7467,5.365237,5.324211,0.6652907
7469,5.365237,5.324211,0.6652907
7472,5.36352,5.322481,0.6647022
7474,5.36352,5.322481,0.6647022
7476,5.352731,5.311572,0.6641131
7479,5.352731,5.311572,0.6641131
7481,5.322701,5.280864,0.6667597
7483,5.298348,5.255982,0.6691033
7486,5.278563,5.235737,0.6711472
7488,5.27366,5.231057,0.6679325
7490,5.27366,5.231057,0.6679325
7493,5.269683,5.227235,0.6655847
7495,5.266447,5.224123,0.6561096
7497,5.26239,5.220859,0.6561096
7499,5.259075,5.218194,0.6501176
7502,5.259075,5.218194,0.6501176
7504,5.256392,5.215977,0.645587
7506,5.256392,5.215977,0.645587
7510,5.30803,5.27091,0.6205508
7512,5.327522,5.291576,0.6113381
7514,5.327522,5.291576,0.6113381
7517,5.295093,5.258516,0.6135744
7519,5.295093,5.258516,0.6135744
7521,5.283238,5.246504,0.614212
7524,5.242768,5.204733,0.6227542
7526,5.242768,5.204733,0.6227542
7528,5.227422,5.188935,0.6258884
7531,5.227422,5.188935,0.6258884
7533,5.21049,5.171461,0.6286958
7535,5.21049,5.171461,0.6286958
7538,5.184591,5.144871,0.6330382
7540,5.183495,5.143919,0.6321102
7542,5.183495,5.143919,0.6321102
7545,5.182361,5.14289,0.6311808
7547,5.182361,5.14289,0.6311808
7549,5.188331,5.149438,0.6274496
7553,5.188331,5.149438,0.6274496
7555,5.190106,5.151417,0.6262009
7557,5.193955,5.155561,0.6246366
7560,5.193955,5.155561,0.6246366
7562,5.199008,5.161031,0.6218109
7564,5.199008,5.161031,0.6218109
7567,5.204168,5.166495,0.6199199
7569,5.211017,5.173733,0.6173896
7571,5.211017,5.173733,0.6173896
7574,5.213535,5.176459,0.6158028
7576,5.213535,5.176459,0.6158028
7578,5.216729,5.179903,0.6135744
7581,5.216729,5.179903,0.6135744
7583,5.216991,5.180281,0.612617
7585,5.217067,5.180319,0.612617
7587,5.217067,5.180319,0.612617
7590,5.217742,5.18115,0.6119779
7592,5.217742,5.18115,0.6119779
7595,5.218344,5.181756,0.6116581
7598,5.221647,5.185234,0.6100564
7600,5.221647,5.185234,0.6100564
7602,5.222734,5.186329,0.6103771
7605,5.222734,5.186329,0.6103771
7607,5.224423,5.188331,0.6081289
7609,5.224423,5.188331,0.6081289
7612,5.224798,5.18886,0.6065179
7614,5.224235,5.188482,0.6045791
7616,5.224235,5.188482,0.6045791
7619,5.222998,5.187651,0.6016592
7621,5.222998,5.187651,0.6016592
7623,5.22356,5.188482,0.598725
7626,5.22356,5.188482,0.598725
7628,5.22386,5.189086,0.5964329
7630,5.162967,5.130569,0.5730078
7633,5.162967,5.130569,0.5730078
7635,5.112206,5.081569,0.5546138
7638,5.112206,5.081569,0.5546138
7641,5.009576,4.98244,0.5166202
7643,4.959462,4.934036,0.4981082
7645,4.959462,4.934036,0.4981082
7648,4.892128,4.870455,0.4558544
7650,4.892128,4.870455,0.4558544
7652,4.869932,4.850342,0.4338616
7655,4.869932,4.850342,0.4338616
7657,4.840881,4.824586,0.3946573
7659,4.831119,4.816214,0.3769049
7662,4.831119,4.816214,0.3769049
7664,4.824058,4.810719,0.3577275
7666,4.824058,4.810719,0.3577275
7668,4.808723,4.797671,0.3256589
7671,4.82621,4.81658,0.3064671
7673,4.82621,4.81658,0.3064671
7675,4.839019,4.83047,0.2900664
7678,4.839019,4.83047,0.2900664
7681,4.888041,4.881223,0.2646699
7683,4.888041,4.881223,0.2646699
7686,4.91996,4.913784,0.2548778
7688,4.964871,4.959304,0.2462884
7690,4.964871,4.959304,0.2462884
7693,5.0012,4.996144,0.2382111
7695,5.0012,4.996144,0.2382111
7697,5.079448,5.07443,0.2414744
7700,5.119827,5.114467,0.249446
7702,5.119827,5.114467,0.249446
7704,5.122046,5.11665,0.2502292
7707,5.122046,5.11665,0.2502292
7709,5.123959,5.118602,0.2502292
7711,5.123959,5.118602,0.2502292
7714,5.112895,5.107797,0.2470816
7716,5.102386,5.097429,0.2438933
7718,5.102386,5.097429,0.2438933
7721,5.093738,5.089005,0.2414744
7724,5.093738,5.089005,0.2414744
7726,5.068095,5.06384,0.2306999
7729,5.068095,5.06384,0.2306999
7731,5.056174,5.05222,0.2264194
7733,5.046283,5.042554,0.2211734
7736,5.046283,5.042554,0.2211734
7738,5.027885,5.024533,0.2148914
7740,5.027885,5.024533,0.2148914
7743,5.019305,5.016181,0.2112177
7745,5.012079,5.009068,0.20842
7747,5.012079,5.009068,0.20842
7750,5.004138,5.001239,0.2065338
7752,5.004138,5.001239,0.2065338
7754,4.997477,4.994693,0.2036718
7756,4.997477,4.994693,0.2036718
7759,4.988766,4.986135,0.2017412
7761,4.985309,4.982793,0.199792
7763,4.985309,4.982793,0.199792
7767,4.979214,4.976853,0.1978235
7769,4.979214,4.976853,0.1978235
7771,4.976656,4.974411,0.1948336
7774,4.973782,4.971536,0.1968319
7776,4.973782,4.971536,0.1968319
7778,4.969052,4.966725,0.1988102
7781,4.969052,4.966725,0.1988102
7783,4.969368,4.966962,0.2017412
7785,4.969368,4.966962,0.2017412
7788,4.969289,4.966805,0.2036718
7790,4.96499,4.962385,0.2065338
7792,4.96499,4.962385,0.2065338
7795,4.961397,4.958791,0.2102893
7797,4.961397,4.958791,0.2102893
7799,4.959699,4.95717,0.2121421
7802,4.958791,4.956419,0.2112177
7804,4.958791,4.956419,0.2112177
7806,4.96349,4.961121,0.2121421
7810,4.96349,4.961121,0.2121421
7812,4.96712,4.964753,0.2130625
7814,4.96712,4.964753,0.2130625
7817,4.979765,4.97764,0.2112177
7819,4.984012,4.982046,0.2102893
7821,4.984012,4.982046,0.2102893
7824,5.002767,5.002022,0.1938267
7826,5.002767,5.002022,0.1938267
7828,5.00942,5.009146,0.1855749
7831,5.00942,5.009146,0.1855749
7833,5.016025,5.015947,0.1855749
7835,5.025585,5.025781,0.1823843
7838,5.025585,5.025781,0.1823843
7840,5.02309,5.023285,0.1855749
7842,5.02309,5.023285,0.1855749
7844,5.019539,5.019773,0.1887116
7847,5.01872,5.019188,0.1845175
7849,5.01872,5.019188,0.1845175
7852,5.017509,5.018524,0.1780411
7855,5.017509,5.018524,0.1780411
7857,4.991318,4.992417,0.1758294
7859,4.991318,4.992417,0.1758294
7862,4.969604,4.970826,0.1735894
7864,4.934671,4.935981,0.1724585
7866,4.934671,4.935981,0.1724585
7869,4.920597,4.921911,0.1724585
7871,4.920597,4.921911,0.1724585
7873,4.910474,4.91179,0.174713
7876,4.894089,4.89541,0.174713
7878,4.894089,4.89541,0.174713
7880,4.890365,4.891647,0.1769387
7883,4.890365,4.891647,0.1769387
7885,4.883389,4.884713,0.1780411
7887,4.883389,4.884713,0.1780411
7890,4.88355,4.884793,0.1791368
7892,4.883069,4.884392,0.1791368
7895,4.883069,4.884392,0.1791368
7898,4.881303,4.882828,0.1791368
7900,4.881303,4.882828,0.1791368
7902,4.880219,4.881704,0.1813082
7905,4.880219,4.881704,0.1813082
7907,4.880741,4.882387,0.1802258
7909,4.881825,4.88355,0.1802258
7912,4.881825,4.88355,0.1802258
7914,4.882707,4.884432,0.1823843
7916,4.882707,4.884432,0.1823843
7919,4.882908,4.884713,0.183454
7921,4.888602,4.890605,0.1823843
7923,4.888602,4.890605,0.1823843
7926,4.89589,4.89805,0.1813082
7928,4.89589,4.89805,0.1813082
7930,4.911312,4.913505,0.1813082
7932,4.911312,4.913505,0.1813082
7936,4.933599,4.936021,0.1802258
7938,4.941614,4.944111,0.1813082
7940,4.941614,4.944111,0.1813082
7943,4.945458,4.948112,0.1791368
7945,4.945458,4.948112,0.1791368
7947,4.954087,4.95725,0.1735894
7950,4.962227,4.965779,0.1690205
7952,4.962227,4.965779,0.1690205
7954,4.965187,4.968934,0.166689
7957,4.965187,4.968934,0.166689
7959,4.970156,4.974096,0.1631294
7961,4.970156,4.974096,0.1631294
7964,4.970156,4.974096,0.1631294
7966,4.976341,4.98063,0.1582588
7968,4.976341,4.98063,0.1582588
7971,4.992535,4.997163,0.1545051
7973,4.992535,4.997163,0.1545051
7975,5.005938,5.010906,0.1519511
7979,5.017236,5.022466,0.1493534
7981,5.017236,5.022466,0.1493534
7983,5.016025,5.021842,0.1384764
7986,5.016025,5.021842,0.1384764
7988,5.015166,5.021491,0.1297215
7990,5.015166,5.021491,0.1297215
7993,5.004411,5.01157,0.1136409
7995,5.00073,5.008168,0.1065312
7997,5.00073,5.008168,0.1065312
8000,4.981102,4.988924,0.09691329
8002,4.981102,4.988924,0.09691329
8004,4.97386,4.98185,0.09065409
8007,4.97386,4.98185,0.09065409
8009,4.969368,4.977482,0.08622923
8011,4.962424,4.970787,0.07661668
8014,4.962424,4.970787,0.07661668
8016,4.957407,4.965779,0.07401875
8018,4.957407,4.965779,0.07401875
8020,4.95112,4.959541,0.0656106
8024,4.949221,4.957763,0.06255726
8026,4.949221,4.957763,0.06255726
8028,4.947676,4.956143,0.06255726
8031,4.944983,4.953414,0.05595291
8033,4.942724,4.95112,0.05595291
8035,4.942724,4.95112,0.05595291
8038,4.940742,4.949141,0.05233916
8040,4.936537,4.944904,0.04845664
8042,4.936537,4.944904,0.04845664
8045,4.934909,4.943319,0.04423466
8047,4.934909,4.943319,0.04423466
8049,4.931415,4.93975,0.04845664
8052,4.926049,4.934393,0.04845664
8054,4.926049,4.934393,0.04845664
8056,4.92394,4.932249,0.04845664
8059,4.92394,4.932249,0.04845664
8061,4.92211,4.930461,0.04423466
8064,4.92211,4.930461,0.04423466
8067,4.923463,4.931812,0.04423466
8069,4.923821,4.932209,0.04423466
8071,4.923821,4.932209,0.04423466
8074,4.924139,4.932447,0.04423466
8076,4.924139,4.932447,0.04423466
8078,4.924259,4.932606,0.04423466
8081,4.924259,4.932606,0.04423466
8083,4.925014,4.933321,0.04845664
8085,4.925532,4.933758,0.04423466
8088,4.925532,4.933758,0.04423466
8090,4.924378,4.932567,0.04423466
8092,4.924378,4.932567,0.04423466
8095,4.923144,4.931256,0.04423466
8097,4.920955,4.92911,0.05233916
8099,4.920955,4.92911,0.05233916
8102,4.920079,4.928156,0.04845664
8104,4.920079,4.928156,0.04845664
8107,4.919323,4.927401,0.05595291
8109,4.919323,4.927401,0.05595291
8112,4.918168,4.926128,0.05233916
8114,4.916494,4.924458,0.05233916
8116,4.916494,4.924458,0.05233916
8119,4.913944,4.92199,0.05595291
8121,4.913944,4.92199,0.05595291
8123,4.912269,4.920238,0.05595291
8126,4.910833,4.918805,0.05934703
8128,4.910833,4.918805,0.05934703
8130,4.91191,4.920119,0.05595291
8133,4.91191,4.920119,0.05595291
8135,4.913704,4.922149,0.05233916
8137,4.913704,4.922149,0.05233916
8140,4.91498,4.923741,0.04423466
8142,4.915299,4.924099,0.05233916
8144,4.915299,4.924099,0.05233916
8147,4.909197,4.917929,0.05233916
8150,4.909197,4.917929,0.05233916
8152,4.90029,4.908957,0.05595291
8155,4.893128,4.901849,0.05934703
8157,4.893128,4.901849,0.05934703
8159,4.882948,4.891526,0.0656106
8162,4.882948,4.891526,0.0656106
8164,4.89601,4.904366,0.06852804
8166,4.89601,4.904366,0.06852804
8169,4.906961,4.9151,0.06852804
8171,4.977404,4.985152,0.08392937
8173,4.977404,4.985152,0.08392937
8176,5.029015,5.036606,0.09691329
8178,5.029015,5.036606,0.09691329
8180,5.040534,5.04834,0.09065409
8183,5.040534,5.04834,0.09065409
8185,5.050979,5.059041,0.08846933
8187,5.107337,5.115846,0.09065409
8190,5.107337,5.115846,0.09065409
8193,5.147117,5.155865,0.09278741
8195,5.147117,5.155865,0.09278741
8197,5.168846,5.178238,0.08392937
8200,5.159816,5.169528,0.07401875
8202,5.159816,5.169528,0.07401875
8204,5.153584,5.163611,0.0656106
8207,5.153584,5.163611,0.0656106
8209,5.109254,5.119789,0.04423466
8211,5.109254,5.119789,0.04423466
8214,5.094084,5.104804,0.02797646
8216,5.148868,5.159322,0.05595291
8218,5.148868,5.159322,0.05595291
8221,5.170892,5.181227,0.06852804
8223,5.170892,5.181227,0.06852804
8225,5.239291,5.249081,0.09891172
8228,5.266894,5.276484,0.1119058
8230,5.266894,5.276484,0.1119058
8232,5.296018,5.305593,0.1235407
8236,5.296018,5.305593,0.1235407
8238,5.292872,5.302341,0.1266688
8240,5.292872,5.302341,0.1266688
8243,5.270092,5.279417,0.1235407
8245,5.252514,5.261757,0.1203313
8247,5.252514,5.261757,0.1203313
8250,5.17733,5.186631,0.1008706
8252,5.17733,5.186631,0.1008706
8254,5.150313,5.159664,0.09487279
8257,5.099888,5.109139,0.08392937
8259,5.099888,5.109139,0.08392937
8261,5.081684,5.09093,0.07912937
8264,5.081684,5.09093,0.07912937
8266,5.064034,5.073079,0.07132626
8268,5.064034,5.073079,0.07132626
8271,5.057569,5.066509,0.07132626
8273,5.054585,5.063454,0.0656106
8275,5.054585,5.063454,0.0656106
8278,5.052065,5.06086,0.0656106
8281,5.052065,5.06086,0.0656106
8283,5.051095,5.059738,0.0656106
8285,5.051095,5.059738,0.0656106
8288,5.050591,5.059196,0.06255726
8290,5.062408,5.0708,0.05595291
8292,5.062408,5.0708,0.05595291
8295,5.079795,5.087927,0.05233916
8297,5.079795,5.087927,0.05233916
8299,5.09116,5.099312,0.04845664
8302,5.107873,5.116037,0.04845664
8304,5.107873,5.116037,0.04845664
8306,5.116305,5.124609,0.04423466
8309,5.116305,5.124609,0.04423466
8311,5.123194,5.131524,0.03956468
8313,5.123194,5.131524,0.03956468
8316,5.137172,5.145747,0.03956468
8318,5.142281,5.15096,0.03956468
8321,5.142281,5.15096,0.03956468
8324,5.148031,5.156777,0.03956468
8326,5.148031,5.156777,0.03956468
8328,5.156549,5.165471,0.03956468
8331,5.159702,5.168694,0.03956468
8333,5.159702,5.168694,0.03956468
8335,5.158752,5.167519,0.03956468
8338,5.158752,5.167519,0.03956468
8340,5.158562,5.167329,0.04423466
8342,5.158562,5.167329,0.04423466
8345,5.158373,5.167177,0.03956468
8347,5.157879,5.16676,0.04423466
8349,5.157879,5.16676,0.04423466
8352,5.157499,5.166495,0.04423466
8354,5.157499,5.166495,0.04423466
8356,5.158183,5.167329,0.03956468
8359,5.158183,5.167329,0.03956468
8361,5.15898,5.168163,0.03956468
8364,5.161031,5.170286,0.03956468
8366,5.161031,5.170286,0.03956468
8369,5.162169,5.171498,0.03956468
8371,5.162169,5.171498,0.03956468
8373,5.163195,5.172635,0.04423466
8376,5.163384,5.172938,0.03956468
8378,5.163384,5.172938,0.03956468
8380,5.163004,5.172597,0.04423466
8383,5.163004,5.172597,0.04423466
8385,5.162549,5.172143,0.03956468
8387,5.162549,5.172143,0.03956468
8390,5.182172,5.191917,0.05233916
8392,5.212069,5.222022,0.05934703
8394,5.212069,5.222022,0.05934703
8397,5.214174,5.224198,0.06255726
8399,5.214174,5.224198,0.06255726
8401,5.218644,5.228734,0.05934703
8404,5.215639,5.225773,0.05934703
8407,5.215639,5.225773,0.05934703
8409,5.212821,5.223035,0.05934703
8412,5.212821,5.223035,0.05934703
8414,5.208045,5.218268,0.06255726
8416,5.208045,5.218268,0.06255726
8419,5.202398,5.212746,0.05934703
8421,5.197915,5.208271,0.05934703
8423,5.197915,5.208271,0.05934703
8426,5.194785,5.20511,0.05934703
8428,5.192559,5.202926,0.05934703
8430,5.190219,5.200552,0.05934703
8433,5.188671,5.199045,0.05595291
8435,5.187878,5.198291,0.05595291
8437,5.184894,5.195313,0.05934703
8440,5.184894,5.195313,0.05934703
8442,5.182739,5.193314,0.05595291
8444,5.182739,5.193314,0.05595291
8448,5.180168,5.190747,0.05595291
8450,5.179335,5.189993,0.05233916
8452,5.179335,5.189993,0.05233916
8454,5.178995,5.189728,0.04845664
8457,5.178995,5.189728,0.04845664
8459,5.178124,5.18886,0.04845664
8461,5.178124,5.18886,0.04845664
8464,5.176762,5.187651,0.04423466
8466,5.17627,5.18716,0.04845664
8468,5.17627,5.18716,0.04845664
8471,5.176157,5.187085,0.04423466
8473,5.176157,5.187085,0.04423466
8475,5.177027,5.187953,0.04423466
8478,5.177973,5.189048,0.04845664
8480,5.177973,5.189048,0.04845664
8482,5.178427,5.189464,0.04423466
8485,5.178427,5.189464,0.04423466
8487,5.178881,5.189917,0.03956468
8489,5.178881,5.189917,0.03956468
8493,5.177973,5.188973,0.04423466
8495,5.176876,5.18784,0.03956468
8497,5.176876,5.18784,0.03956468
8500,5.176573,5.1875,0.04423466
8502,5.176573,5.1875,0.04423466
8504,5.176535,5.187425,0.03956468
8507,5.175399,5.186065,0.03956468
8509,5.175399,5.186065,0.03956468
8511,5.175172,5.185876,0.03956468
8514,5.175172,5.185876,0.03956468
8516,5.178881,5.189426,0.03956468
8518,5.178881,5.189426,0.03956468
8521,5.180394,5.190898,0.03956468
8523,5.182928,5.193314,0.03956468
8525,5.182928,5.193314,0.03956468
8528,5.183987,5.194333,0.04423466
8530,5.183987,5.194333,0.04423466
8532,5.180886,5.191125,0.04423466
8536,5.180886,5.191125,0.04423466
8538,5.17994,5.190181,0.04423466
8540,5.176913,5.18716,0.04423466
8542,5.174604,5.184818,0.04423466
8545,5.172862,5.183117,0.04423466
8547,5.172862,5.183117,0.04423466
8549,5.168732,5.179032,0.04423466
8552,5.167405,5.177708,0.04845664
8554,5.167405,5.177708,0.04845664
8556,5.166002,5.176345,0.04845664
8559,5.166002,5.176345,0.04845664
8561,5.165623,5.176005,0.05233916
8563,5.165623,5.176005,0.05233916
8566,5.165016,5.175399,0.04845664
8568,5.164485,5.174793,0.05595291
8570,5.164485,5.174793,0.05595291
8573,5.161182,5.171536,0.05934703
8576,5.161182,5.171536,0.05934703
8578,5.160044,5.170475,0.06255726
8581,5.158335,5.168732,0.06255726
8583,5.158335,5.168732,0.06255726
8585,5.156017,5.166381,0.07132626
8588,5.156017,5.166381,0.07132626
8590,5.155181,5.165432,0.07401875
8592,5.155181,5.165432,0.07401875
8595,5.154079,5.164332,0.07912937
8597,5.175513,5.1858,0.08622923
8599,5.175513,5.1858,0.08622923
8602,5.208045,5.218419,0.09691329
8604,5.208045,5.218419,0.09691329
8606,5.227797,5.238206,0.1046783
8609,5.258703,5.2692,0.1170339
8611,5.258703,5.2692,0.1170339
8613,5.268902,5.279528,0.1251145
8616,5.268902,5.279528,0.1251145
8619,5.285686,5.296462,0.1356209
8621,5.285686,5.296462,0.1356209
8624,5.293686,5.304706,0.1398823
8626,5.306995,5.318393,0.1467098
8628,5.306995,5.318393,0.1467098
8630,5.314154,5.325793,0.1480375
8633,5.314154,5.325793,0.1480375
8635,5.326272,5.338215,0.1519511
8637,5.326272,5.338215,0.1519511
8640,5.330464,5.342545,0.1519511
8642,5.337811,5.350132,0.1532334
8644,5.337811,5.350132,0.1532334
8647,5.341701,5.354159,0.1506579
8649,5.341701,5.354159,0.1506579
8651,5.348666,5.361291,0.1467098
8654,5.351779,5.364543,0.14537
8656,5.351779,5.364543,0.14537
8658,5.35533,5.368195,0.1426525
8662,5.35533,5.368195,0.1426525
8664,5.35533,5.368195,0.1426525
8666,5.35533,5.368195,0.1426525
8669,5.359683,5.372756,0.1384764
8671,5.361145,5.374324,0.132704
8673,5.361145,5.374324,0.132704
8676,5.362753,5.376037,0.1282043
8678,5.362753,5.376037,0.1282043
8680,5.367574,5.380919,0.1219466
8683,5.370458,5.383796,0.1186941
8685,5.370458,5.383796,0.1186941
