time,turnedAngle,pitchAngle,yawAngle
47,0,0,0
5900972,0,0,0
5900974,0,0,0
5900977,0,0,0
5900972,0,0,0
5900974,0,0,0
5900977,0,0,0
5900982,0,0,0
5900985,0,0,0
5900987,0,0,0
5900990,0,0,0
5900992,0,0,0
5900995,0,0,0
5900997,0,0,0
5901000,0,0,0
5901003,0,0,0
5901005,0,0,0
5901008,0,0,0
5901010,0,0,0
5901014,0,0,0
5901016,0,0,0
5901019,0,0,0
5901022,0,0,0
5901024,0,0,0
5901027,0,0,0
5901029,0,0,0
5901032,0,0,0
5901034,0,0,0
5901037,0,0,0
5901040,0,0,0
5901042,0,0,0
5901045,0,0,0
5901047,0,0,0
5901050,0,0,0
5901052,0,0,0
5901056,0,0,0
5901059,0,0,0
5901061,0,0,0
5901064,0,0,0
5901066,0,0,0
5901069,0,0,0
5901071,0,0,0
5901074,0,0,0
5901077,0,0,0
5901079,0,0,0
5901082,0,0,0
5901084,0,0,0
5901087,0,0,0
5901089,0,0,0
5901092,0,0,0
5901095,0,0,0
5901097,0,0,0
5901101,0,0,0
5901103,0,0,0
5901106,0,0,0
5901108,0,0,0
5901111,0,0,0
5901114,0,0,0
5901116,0,0,0
5901119,0,0,0
5901121,0,0,0
5901124,0,0,0
5901126,0,0,0
5901129,0,0,0
5901132,0,0,0
5901134,0,0,0
5901137,0,0,0
5901139,0,0,0
5901143,0,0,0
5901146,0,0,0
5901148,0,0,0
5901151,0,0,0
5901153,0,0,0
5901156,0,0,0
5901158,0,0,0
5901161,0,0,0
5901164,0,0,0
5901166,0,0,0
5901169,0,0,0
5901171,0,0,0
5901174,0,0,0
5901176,0,0,0
5901179,0,0,0
5901182,0,0,0
5901185,0,0,0
5901188,0,0,0
5901190,0,0,0
5901193,0,0,0
5901195,0,0,0
5901198,0,0,0
5901201,0,0,0
5901203,0,0,0
5901206,0,0,0
5901208,0,0,0
5901211,0,0,0
5901213,0,0,0
5901216,0,0,0
5901219,0,0,0
5901221,0,0,0
5901224,0,0,0
5901227,0,0,0
5901230,0,0,0
5901232,0,0,0
5901235,0,0,0
5901238,0,0,0
5901240,0,0,0
5901243,0,0,0
5901245,0,0,0
5901248,0,0,0
5901250,0,0,0
5901253,0,0,0
5901256,0,0,0
5901258,0,0,0
5901261,0,0,0
5901263,0,0,0
5901266,0,0,0
5901268,0,0,0
5901272,0,0,0
5901275,0,0,0
5901277,0,0,0
5901280,0,0,0
5901282,0,0,0
5901285,0,0,0
5901287,0,0,0
5901290,0,0,0
5901293,0,0,0
5901295,0,0,0
5901298,0,0,0
5901300,0,0,0
5901303,0,0,0
5901305,0,0,0
5901308,0,0,0
5901312,0,0,0
5901314,0,0,0
5901317,0,0,0
5901319,0,0,0
5901322,0,0,0
5901324,0,0,0
5901327,0,0,0
5901330,0,0,0
5901332,0,0,0
5901335,0,0,0
5901337,0,0,0
5901340,0,0,0
5901342,0,0,0
5901345,0,0,0
5901348,0,0,0
5901350,0,0,0
5901353,0,0,0
5901356,0,0,0
5901359,0,0,0
5901362,0,0,0
5901364,0,0,0
5901367,0,0,0
5901369,0,0,0
5901372,0,0,0
5901374,0,0,0
5901377,0,0,0
5901380,0,0,0
5901382,0,0,0
5901385,0,0,0
5901387,0,0,0
5901390,0,0,0
5901392,0,0,0
5901395,0,0,0
5901399,0,0,0
5901401,0,0,0
5901404,0,0,0
5901406,0,0,0
5901409,0,0,0
5901411,0,0,0
5901414,0,0,0
5901417,0,0,0
5901419,0,0,0
5901422,0,0,0
5901424,0,0,0
5901427,0,0,0
5901429,0,0,0
5901432,0,0,0
5901435,0,0,0
5901437,0,0,0
5901441,0,0,0
5901443,0,0,0
5901446,0,0,0
5901448,0,0,0
5901451,0,0,0
5901454,0,0,0
5901456,0,0,0
5901459,0,0,0
5901461,0,0,0
5901464,0,0,0
5901466,0,0,0
5901469,0,0,0
5901472,0,0,0
5901474,0,0,0
5901477,0,0,0
5901479,0,0,0
5901483,0,0,0
5901485,0,0,0
5901488,0,0,0
5901491,0,0,0
5901493,0,0,0
5901496,0,0,0
5901498,0,0,0
5901501,0,0,0
5901503,0,0,0
5901506,0,0,0
5901509,0,0,0
5901511,0,0,0
5901514,0,0,0
5901516,0,0,0
5901519,0,0,0
5901521,0,0,0
5901524,0,0,0
5901528,0,0,0
5901530,0,0,0
5901533,0,0,0
5901535,0,0,0
5901538,0,0,0
5901540,0,0,0
5901543,0,0,0
5901546,0,0,0
5901548,0,0,0
5901551,0,0,0
5901553,0,0,0
5901556,0,0,0
5901559,0,0,0
5901561,0,0,0
5901564,0,0,0
5901566,0,0,0
5901570,0,0,0
5901572,0,0,0
5901575,0,0,0
5901578,0,0,0
5901580,0,0,0
5901583,0,0,0
5901585,0,0,0
5901588,0,0,0
5901590,0,0,0
5901593,0,0,0
5901596,0,0,0
5901598,0,0,0
5901601,0,0,0
5901603,0,0,0
5901606,0,0,0
5901608,0,0,0
5901612,0,0,0
5901615,0,0,0
5901617,0,0,0
5901620,0,0,0
5901622,0,0,0
5901625,0,0,0
5901627,0,0,0
5901630,0,0,0
5901633,0,0,0
5901635,0,0,0
5901638,0,0,0
5901640,0,0,0
5901643,0,0,0
5901645,0,0,0
5901648,0,0,0
5901651,0,0,0
5901654,0,0,0
5901657,0,0,0
5901659,0,0,0
5901662,0,0,0
5901664,0,0,0
5901667,0,0,0
5901670,0,0,0
5901672,0,0,0
5901675,0,0,0
5901677,0,0,0
5901680,0,0,0
5901682,0,0,0
5901685,0,0,0
5901688,0,0,0
5901690,0,0,0
5901693,0,0,0
5901696,0,0,0
5901699,0,0,0
5901701,0,0,0
5901704,0,0,0
5901707,0,0,0
5901709,0,0,0
5901712,0,0,0
5901714,0,0,0
5901717,0,0,0
5901719,0,0,0
5901722,0,0,0
5901725,0,0,0
5901727,0,0,0
5901730,0,0,0
5901732,0,0,0
5901735,0,0,0
5901737,0,0,0
5901741,0,0,0
5901744,0,0,0
5901746,0,0,0
5901749,0,0,0
5901751,0,0,0
5901754,0,0,0
5901756,0,0,0
5901759,0,0,0
5901762,0,0,0
5901764,0,0,0
5901767,0,0,0
5901769,0,0,0
5901772,0,0,0
5901775,0,0,0
5901777,0,0,0
5901780,0,0,0
5901783,0,0,0
5901786,0,0,0
5901788,0,0,0
5901791,0,0,0
5901794,0,0,0
5901796,0,0,0
5901799,0,0,0
5901801,0,0,0
5901804,0,0,0
5901806,0,0,0
5901809,0,0,0
5901812,0,0,0
5901814,0,0,0
5901817,0,0,0
5901819,0,0,0
5901822,0,0,0
5901825,0,0,0
5901828,0,0,0
5901831,0,0,0
5901833,0,0,0
5901836,0,0,0
5901838,0,0,0
5901841,0,0,0
5901843,0,0,0
5901846,0,0,0
5901849,0,0,0
5901851,0,0,0
5901854,0,0,0
5901856,0,0,0
5901859,0,0,0
5901861,0,0,0
5901864,0,0,0
5901868,0,0,0
5901870,0,0,0
5901873,0,0,0
5901875,0,0,0
5901878,0,0,0
5901880,0,0,0
5901883,0,0,0
5901886,0,0,0
5901888,0,0,0
5901891,0,0,0
5901893,0,0,0
5901896,0,0,0
5901898,0,0,0
5901901,0,0,0
5901904,0,0,0
5901906,0,0,0
5901910,0,0,0
5901912,0,0,0
5901915,0,0,0
5901917,0,0,0
5901920,0,0,0
5901923,0,0,0
5901925,0,0,0
5901928,0,0,0
5901930,0,0,0
5901933,0,0,0
5901935,0,0,0
5901938,0,0,0
5901941,0,0,0
5901943,0,0,0
5901946,0,0,0
5901948,0,0,0
5901952,0,0,0
5901954,0,0,0
5901957,0,0,0
5901960,0,0,0
5901962,0,0,0
5901965,0,0,0
5901967,0,0,0
5901970,0,0,0
5901973,0,0,0
5901975,0,0,0
5901978,0,0,0
5901980,0,0,0
5901983,0,0,0
5901985,0,0,0
5901988,0,0,0
5901991,0,0,0
5901993,0,0,0
5901997,0,0,0
5901999,0,0,0
5902002,0,0,0
5902004,0,0,0
5902007,0,0,0
5902010,0,0,0
5902012,0,0,0
5902015,0,0,0
5902017,0,0,0
5902020,0,0,0
5902022,0,0,0
5902025,0,0,0
5902028,0,0,0
5902030,0,0,0
5902033,0,0,0
5902035,0,0,0
5902039,0,0,0
5902041,0,0,0
5902044,0,0,0
5902047,0,0,0
5902049,0,0,0
5902052,0,0,0
5902054,0,0,0
5902057,0,0,0
5902059,0,0,0
5902062,0,0,0
5902065,0,0,0
5902067,0,0,0
5902070,0,0,0
5902072,0,0,0
5902075,0,0,0
5902077,0,0,0
5902081,0,0,0
5902084,0,0,0
5902086,0,0,0
5902089,0,0,0
5902091,0,0,0
5902094,0,0,0
5902096,0,0,0
5902099,0,0,0
5902102,0,0,0
5902104,0,0,0
5902107,0,0,0
5902109,0,0,0
5902112,0,0,0
5902114,0,0,0
5902117,0,0,0
5902120,0,0,0
5902123,0,0,0
5902126,0,0,0
5902128,0,0,0
5902131,0,0,0
5902133,0,0,0
5902136,0,0,0
5902139,0,0,0
5902141,0,0,0
5902144,0,0,0
5902146,0,0,0
5902149,0,0,0
5902151,0,0,0
5902154,0,0,0
5902157,0,0,0
5902159,0,0,0
5902162,0,0,0
5902164,0,0,0
5902168,0,0,0
5902170,0,0,0
5902173,0,0,0
5902176,0,0,0
5902178,0,0,0
5902181,0,0,0
5902183,0,0,0
5902186,0,0,0
5902189,0,0,0
5902191,0,0,0
5902194,0,0,0
5902196,0,0,0
5902199,0,0,0
5902201,0,0,0
5902204,0,0,0
5902208,0,0,0
5902210,0,0,0
5902213,0,0,0
5902215,0,0,0
5902218,0,0,0
5902220,0,0,0
5902223,0,0,0
5902226,0,0,0
5902228,0,0,0
5902231,0,0,0
5902233,0,0,0
5902236,0,0,0
5902238,0,0,0
5902241,0,0,0
5902244,0,0,0
5902246,0,0,0
5902249,0,0,0
5902252,0,0,0
5902255,0,0,0
5902257,0,0,0
5902260,0,0,0
5902263,0,0,0
5902265,0,0,0
5902268,0,0,0
5902270,0,0,0
5902273,0,0,0
5902275,0,0,0
5902278,0,0,0
5902281,0,0,0
5902283,0,0,0
5902286,0,0,0
5902288,0,0,0
5902291,0,0,0
5902294,0,0,0
5902297,0,0,0
5902300,0,0,0
5902302,0,0,0
5902305,0,0,0
5902307,0,0,0
5902310,0,0,0
5902312,0,0,0
5902315,0,0,0
5902318,0,0,0
5902320,0,0,0
5902323,0,0,0
5902325,0,0,0
5902328,0,0,0
5902330,0,0,0
5902333,0,0,0
5902337,0,0,0
5902339,0,0,0
5902342,0,0,0
5902344,0,0,0
5902347,0,0,0
5902349,0,0,0
5902352,0,0,0
5902355,0,0,0
5902357,0,0,0
5902360,0,0,0
5902362,0,0,0
5902365,0,0,0
5902367,0,0,0
5902370,0,0,0
5902373,0,0,0
5902375,0,0,0
5902379,0.165511,0.1713202,0
5902381,0.165511,0.1713202,0
5902384,0.2264194,0.2349025,0
5902387,0.2264194,0.2349025,0
5902389,0.2755364,0.2866737,0
5902392,0.3146578,0.3274564,0
5902394,0.3146578,0.3274564,0
5902397,0.3748225,0.3906707,0
5902399,0.3961419,0.4130683,0
5902402,0.3961419,0.4130683,0
5902405,0.414487,0.4329587,0
5902407,0.4423477,0.4626713,0
5902410,0.4423477,0.4626713,0
5902412,0.4528397,0.4739525,0
5902415,0.4614008,0.4825446,0
5902417,0.4614008,0.4825446,0
5902420,0.4689721,0.4905876,0
5902424,0.4689721,0.4905876,0
5902426,0.4821389,0.5035778,0.01978234
5902429,0.4873863,0.5093729,0
5902431,0.4873863,0.5093729,0
5902434,0.4917827,0.5143426,0.01978234
5902436,0.4977152,0.5200178,0
5902439,0.4977152,0.5200178,0
5902442,0.5024107,0.5241405,0
5902444,0.5154827,0.5363187,0
5902447,0.5154827,0.5363187,0
5902449,0.5406791,0.5584812,0.01978234
5902452,0.5521386,0.5688952,0.01978234
5902454,0.5521386,0.5688952,0.01978234
5902457,0.5616257,0.57743,0.02797646
5902460,0.5616257,0.57743,0.02797646
5902462,0.5688952,0.5831623,0.01978234
5902466,0.5801346,0.591822,0.02797646
5902468,0.5801346,0.591822,0.02797646
5902471,0.5878411,0.598071,0.01978234
5902473,0.5941319,0.6036074,0.02797646
5902476,0.5941319,0.6036074,0.02797646
5902479,0.6016592,0.6097356,0.01978234
5902481,0.612617,0.6196041,0.01978234
5902484,0.612617,0.6196041,0.01978234
5902486,0.6132555,0.6196041,0
5902489,0.614212,0.6202354,0
5902491,0.614212,0.6202354,0
5902494,0.615167,0.6202354,0
5902497,0.615167,0.6202354,0
5902499,0.6167554,0.6208661,0
5902502,0.615485,0.6189722,-0.01978234
5902504,0.615485,0.6189722,-0.01978234
5902508,0.614212,0.6167554,-0.03426402
5902510,0.6205508,0.6214961,-0.03426402
5902513,0.6205508,0.6214961,-0.03426402
5902516,0.6255757,0.6255757,-0.03956468
5902518,0.6373509,0.6364292,-0.04845664
5902521,0.6373509,0.6364292,-0.04845664
5902523,0.6437659,0.6419396,-0.04845664
5902526,0.6495153,0.6467983,-0.05595291
5902528,0.6495153,0.6467983,-0.05595291
5902531,0.6578966,0.6537194,-0.06255726
5902534,0.6578966,0.6537194,-0.06255726
5902536,0.6510199,0.6452838,-0.07132626
5902539,0.645587,0.6382713,-0.08392937
5902541,0.645587,0.6382713,-0.08392937
5902544,0.6373509,0.6277614,-0.09487279
5902546,0.6249498,0.6116581,-0.1119058
5902550,0.6249498,0.6116581,-0.1119058
5902553,0.6196041,0.6032831,-0.1219466
5902555,0.615167,0.5964329,-0.132704
5902558,0.615167,0.5964329,-0.132704
5902560,0.6106976,0.5885065,-0.1440177
5902563,0.6045791,0.5760729,-0.1631294
5902565,0.6045791,0.5760729,-0.1631294
5902568,0.6049027,0.5723243,-0.174713
5902571,0.6049027,0.5723243,-0.174713
5902573,0.6049027,0.569239,-0.1845175
5902576,0.6065179,0.5640592,-0.2027088
5902578,0.6065179,0.5640592,-0.2027088
5902581,0.6081289,0.5616257,-0.2121421
5902583,0.6084505,0.55778,-0.2238118
5902586,0.6084505,0.55778,-0.2238118
5902589,0.6090934,0.5546138,-0.23239
5902592,0.6090934,0.5514293,-0.2406627
5902595,0.6090934,0.5514293,-0.2406627
5902597,0.6129363,0.5514293,-0.249446
5902600,0.6161205,0.5510744,-0.2571706
5902603,0.6161205,0.5510744,-0.2571706
5902605,0.6211812,0.5528469,-0.2676108
5902608,0.6211812,0.5528469,-0.2676108
5902610,0.6324196,0.5570779,-0.2846186
5902613,0.6376578,0.5588315,-0.2914124
5902615,0.6376578,0.5588315,-0.2914124
5902618,0.6419396,0.5605795,-0.2973941
5902621,0.6510199,0.5647526,-0.3090104
5902623,0.6510199,0.5647526,-0.3090104
5902626,0.6540186,0.5657911,-0.3134116
5902628,0.6567059,0.5671728,-0.3171355
5902631,0.6567059,0.5671728,-0.3171355
5902633,0.660568,0.5699261,-0.3202056
5902637,0.6620474,0.5712977,-0.3208161
5902640,0.6620474,0.5712977,-0.3208161
5902642,0.6635236,0.5723243,-0.3220336
5902645,0.616438,0.5109072,-0.3345502
5902647,0.616438,0.5109072,-0.3345502
5902650,0.5997046,0.4877876,-0.339197
5902652,0.5997046,0.4877876,-0.339197
5902655,0.5767518,0.456712,-0.3460502
5902658,0.5581307,0.4302385,-0.3516591
5902660,0.5581307,0.4302385,-0.3516591
5902663,0.5252593,0.3861367,-0.3577275
5902665,0.5128186,0.3690354,-0.360452
5902668,0.5128186,0.3690354,-0.360452
5902670,0.4957456,0.3483046,-0.360452
5902673,0.4889896,0.339197,-0.360452
5902676,0.4889896,0.339197,-0.360452
5902679,0.4849715,0.3345502,-0.3593647
5902682,0.4801054,0.329838,-0.3593647
5902684,0.4801054,0.329838,-0.3593647
5902687,0.5035778,0.3690354,-0.3466151
5902689,0.5035778,0.3690354,-0.3466151
5902692,0.5124369,0.3830841,-0.3420692
5902695,0.53008,0.409739,-0.3345502
5902697,0.53008,0.409739,-0.3345502
5902700,0.5450047,0.4316007,-0.3280534
5902702,0.5521386,0.4458725,-0.3189811
5902705,0.5521386,0.4458725,-0.3189811
5902707,0.5542608,0.450674,-0.315899
5902710,0.5668277,0.4702222,-0.3077414
5902713,0.5668277,0.4702222,-0.3077414
5902715,0.5777687,0.4861804,-0.301316
5902718,0.6006827,0.5215207,-0.2839303
5902721,0.6006827,0.5215207,-0.2839303
5902724,0.6094146,0.5348573,-0.276953
5902726,0.6094146,0.5348573,-0.276953
5902729,0.6180231,0.5485832,-0.2690692
5902732,0.6252628,0.5598809,-0.261696
5902734,0.6252628,0.5598809,-0.261696
5902737,0.6314908,0.5695826,-0.2556444
5902739,0.6440698,0.5888388,-0.2430897
5902742,0.6440698,0.5888388,-0.2430897
5902744,0.6486109,0.5961047,-0.2373883
5902747,0.652521,0.6026341,-0.2315465
5902750,0.652521,0.6026341,-0.2315465
5902752,0.6661724,0.6218109,-0.2193969
5902755,0.6714388,0.6296288,-0.2139789
5902757,0.6714388,0.6296288,-0.2139789
5902760,0.6740565,0.6339648,-0.2093567
5902763,0.6740565,0.6339648,-0.2093567
5902766,0.6783969,0.6413296,-0.2007689
5902769,0.6801254,0.6452838,-0.1958353
5902771,0.6801254,0.6452838,-0.1958353
5902774,0.6821364,0.6483091,-0.191797
5902776,0.6705639,0.6370438,-0.1887116
5902779,0.6705639,0.6370438,-0.1887116
5902781,0.6531205,0.6208661,-0.183454
5902784,0.6431577,0.6116581,-0.1802258
5902787,0.6431577,0.6116581,-0.1802258
5902789,0.6348901,0.6042554,-0.1780411
5902792,0.652521,0.6258884,-0.165511
5902794,0.652521,0.6258884,-0.165511
5902797,0.6807005,0.659382,-0.1493534
5902800,0.6807005,0.659382,-0.1493534
5902802,0.7030433,0.6849989,-0.1384764
5902806,0.7222635,0.7066523,-0.1282043
5902808,0.7222635,0.7066523,-0.1282043
5902811,0.7449358,0.7314168,-0.1170339
5902813,0.7641266,0.7527748,-0.1083524
5902816,0.7641266,0.7527748,-0.1083524
5902819,0.7810954,0.7712635,-0.1008706
5902821,0.8067285,0.7994187,-0.08622923
5902824,0.8067285,0.7994187,-0.08622923
5902826,0.8156537,0.8091505,-0.07661668
5902829,0.8240075,0.8182884,-0.07132626
5902831,0.8240075,0.8182884,-0.07132626
5902834,0.8315719,0.8266156,-0.06852804
5902837,0.8355626,0.8313365,-0.06255726
5902839,0.8397673,0.8360308,-0.05595291
5902842,0.8434873,0.8400003,-0.05233916
5902844,0.8434873,0.8400003,-0.05233916
5902848,0.847191,0.844183,-0.04845664
5902850,0.8527163,0.8504184,-0.04423466
5902853,0.8527163,0.8504184,-0.04423466
5902856,0.8547791,0.8529457,-0.03426402
5902858,0.8547791,0.8529457,-0.03426402
5902861,0.8547791,0.8529457,-0.03426402
5902863,0.8554656,0.8538629,-0.02797646
5902866,0.8566085,0.8552368,-0.01978234
5902868,0.8566085,0.8552368,-0.01978234
5902871,0.8591176,0.857978,0
5902874,0.8591176,0.857978,0
5902876,0.857978,0.8572935,-0.02797646
5902879,0.8577499,0.8570652,0
5902881,0.8577499,0.8570652,0
5902884,0.8586619,0.858206,0
5902886,0.8598006,0.8591176,-0.02797646
5902889,0.8598006,0.8591176,-0.02797646
5902893,0.861165,0.8604831,-0.02797646
5902895,0.8595729,0.8588898,0
5902898,0.8595729,0.8588898,0
5902900,0.8559229,0.8550079,0
5902903,0.8538629,0.8529457,0
5902905,0.8538629,0.8529457,0
5902908,0.8529457,0.8517979,0
5902911,0.8529457,0.8517979,0
5902913,0.8517979,0.8506485,-0.02797646
5902916,0.8506485,0.8494976,-0.02797646
5902918,0.8506485,0.8494976,-0.02797646
5902921,0.8506485,0.8492672,-0.02797646
5902923,0.8511084,0.8497278,-0.02797646
5902926,0.8511084,0.8497278,-0.02797646
5902929,0.8501883,0.8481144,-0.03956468
5902931,0.8497278,0.8481144,-0.03956468
5902935,0.8497278,0.8481144,-0.03956468
5902937,0.8488063,0.8464977,-0.02797646
5902940,0.8485757,0.8462666,-0.03956468
5902942,0.8485757,0.8462666,-0.03956468
5902945,0.8185275,0.8149337,-0.04845664
5902948,0.8185275,0.8149337,-0.04845664
5902950,0.7937689,0.7893192,-0.05595291
5902953,0.7589878,0.7522548,-0.07401875
5902955,0.7589878,0.7522548,-0.07401875
5902958,0.7457234,0.7383398,-0.08156469
5902960,0.7367479,0.7284679,-0.08622923
5902963,0.7367479,0.7284679,-0.08622923
5902966,0.7225344,0.7121689,-0.09891172
5902968,0.7192771,0.707759,-0.1046783
5902971,0.7192771,0.707759,-0.1046783
5902973,0.7162784,0.7038778,-0.1101434
5902977,0.7168246,0.7030433,-0.1153499
5902979,0.7168246,0.7030433,-0.1153499
5902982,0.7160051,0.7005339,-0.1266688
5902985,0.7154584,0.6980155,-0.1341704
5902987,0.7154584,0.6980155,-0.1341704
5902990,0.7140896,0.6957693,-0.1398823
5902992,0.7140896,0.6957693,-0.1398823
5902995,0.7135413,0.6932335,-0.1480375
5902997,0.7116191,0.6887025,-0.1570175
5903000,0.7116191,0.6887025,-0.1570175
5903003,0.7107937,0.6869956,-0.1619255
5903005,0.7102429,0.6852845,-0.166689
5903008,0.7102429,0.6852845,-0.166689
5903010,0.7072059,0.6786853,-0.1780411
5903013,0.7058211,0.6763749,-0.1823843
5903016,0.7058211,0.6763749,-0.1823843
5903019,0.6889865,0.6558113,-0.1907741
5903022,0.6635236,0.6240098,-0.2055842
5903024,0.6635236,0.6240098,-0.2055842
5903027,0.6632286,0.6227542,-0.2093567
5903029,0.6632286,0.6227542,-0.2093567
5903032,0.6623429,0.6205508,-0.2121421
5903035,0.6676395,0.6255757,-0.2139789
5903037,0.6676395,0.6255757,-0.2139789
5903040,0.6734757,0.6305605,-0.2176059
5903042,0.6602717,0.615167,-0.2211734
5903045,0.6602717,0.615167,-0.2211734
5903047,0.6489125,0.6013339,-0.2255535
5903050,0.6388841,0.589503,-0.2289973
5903053,0.6388841,0.589503,-0.2289973
5903055,0.645587,0.5967609,-0.2289973
5903058,0.6370438,0.5861744,-0.23239
5903060,0.6370438,0.5861744,-0.23239
5903064,0.6293179,0.577091,-0.2349025
5903066,0.6293179,0.577091,-0.2349025
5903069,0.6221254,0.5682068,-0.2373883
5903072,0.6342734,0.5824909,-0.2332305
5903074,0.6342734,0.5824909,-0.2332305
5903077,0.6449805,0.5957764,-0.2281412
5903079,0.65342,0.6061952,-0.2246844
5903082,0.65342,0.6061952,-0.2246844
5903084,0.6691033,0.6255757,-0.2185032
5903087,0.6763749,0.6339648,-0.2158
5903090,0.6763749,0.6339648,-0.2158
5903092,0.6818494,0.6407191,-0.2130625
5903095,0.6918207,0.65342,-0.2074791
5903097,0.6918207,0.65342,-0.2074791
5903100,0.6963314,0.659382,-0.2046302
5903102,0.6963314,0.659382,-0.2046302
5903106,0.699975,0.6641131,-0.2017412
5903109,0.7024865,0.6676395,-0.1988102
5903111,0.7024865,0.6676395,-0.1988102
5903114,0.7063754,0.6734757,-0.1928145
5903116,0.708588,0.6772422,-0.1876719
5903119,0.708588,0.6772422,-0.1876719
5903121,0.7102429,0.6801254,-0.1845175
5903124,0.711069,0.6824232,-0.1823843
5903127,0.711069,0.6824232,-0.1823843
5903129,0.7127182,0.6858553,-0.1758294
5903132,0.7129927,0.6872803,-0.1713202
5903134,0.7129927,0.6872803,-0.1713202
5903137,0.7124436,0.688134,-0.1678588
5903139,0.7124436,0.688134,-0.1678588
5903142,0.7121689,0.6887025,-0.165511
5903145,0.6901216,0.667053,-0.1570175
5903148,0.6901216,0.667053,-0.1570175
5903151,0.6812752,0.6590852,-0.1545051
5903153,0.6960504,0.6769533,-0.1426525
5903156,0.6960504,0.6769533,-0.1426525
5903158,0.7255072,0.7124436,-0.1186941
5903161,0.7404569,0.7300779,-0.1083524
5903164,0.7404569,0.7300779,-0.1083524
5903166,0.7532945,0.7444103,-0.09891172
5903169,0.7491269,0.7409853,-0.09487279
5903171,0.7491269,0.7409853,-0.09487279
5903174,0.7386047,0.7314168,-0.09065409
5903176,0.7386047,0.7314168,-0.09065409
5903179,0.7330202,0.7260464,-0.08846933
5903182,0.7287365,0.7217214,-0.08846933
5903184,0.7287365,0.7217214,-0.08846933
5903187,0.7396637,0.7351527,-0.07401875
5903190,0.7438844,0.7407211,-0.06852804
5903193,0.7438844,0.7407211,-0.06852804
5903195,0.7527748,0.7504317,-0.05934703
5903198,0.7602757,0.758472,-0.05233916
5903201,0.7602757,0.758472,-0.05233916
5903203,0.7682129,0.7677034,-0.04423466
5903206,0.7810954,0.7813459,-0.02797646
5903208,0.7810954,0.7813459,-0.02797646
5903211,0.7868362,0.7873334,-0.02797646
5903214,0.7868362,0.7873334,-0.02797646
5903216,0.7915472,0.7922885,-0.01978234
5903219,0.7778319,0.7783349,-0.02797646
5903221,0.7778319,0.7783349,-0.02797646
5903224,0.7571809,0.7574393,-0.03426402
5903226,0.7610474,0.7613045,-0.02797646
5903229,0.7610474,0.7613045,-0.02797646
5903233,0.7641266,0.7646385,-0.02797646
5903235,0.7697397,0.7707559,-0.01978234
5903238,0.7697397,0.7707559,-0.01978234
5903240,0.774302,0.7755645,-0.01978234
5903243,0.7825971,0.7840959,-0.01978234
5903245,0.7825971,0.7840959,-0.01978234
5903248,0.7865875,0.7880787,-0.01978234
5903251,0.7865875,0.7880787,-0.01978234
5903253,0.7917944,0.7930291,0
5903256,0.7954926,0.7972127,0
5903258,0.7954926,0.7972127,0
5903261,0.8018627,0.8038125,0
5903263,0.8042993,0.8060005,0
5903266,0.8042993,0.8060005,0
5903269,0.8062432,0.8079404,0
5903271,0.8089085,0.8103587,0
5903275,0.8089085,0.8103587,0
5903277,0.8067285,0.8081825,0
5903280,0.8050289,0.8062432,0
5903282,0.8050289,0.8062432,0
5903285,0.8028382,0.8033255,0
5903288,0.8028382,0.8033255,0
5903290,0.798684,0.7991739,0
5903293,0.7974581,0.7977034,0
5903295,0.7974581,0.7977034,0
5903298,0.796476,0.7967216,0
5903300,0.7954926,0.7957386,0
5903303,0.7954926,0.7959845,0
5903306,0.7959845,0.7959845,0
5903308,0.7950006,0.7950006,0
5903311,0.7950006,0.7950006,0
5903313,0.7942618,0.7942618,0
5903316,0.7912999,0.7915472,0
5903319,0.7912999,0.7915472,0
5903322,0.7895671,0.7898148,-0.02797646
5903325,0.7740492,0.7735435,-0.01978234
5903327,0.7740492,0.7735435,-0.01978234
5903330,0.7504317,0.7491269,-0.02797646
5903332,0.7504317,0.7491269,-0.02797646
5903335,0.7351527,0.7335538,-0.03956468
5903337,0.7222635,0.7200928,-0.04423466
5903340,0.7222635,0.7200928,-0.04423466
5903343,0.7116191,0.708588,-0.05233916
5903345,0.7116191,0.708588,-0.05233916
5903348,0.7116191,0.708588,-0.05233916
5903350,0.7116191,0.708588,-0.05233916
5903353,0.6985759,0.694925,-0.05595291
5903355,0.6985759,0.694925,-0.05595291
5903358,0.687565,0.6835691,-0.05934703
5903362,0.6772422,0.6723125,-0.0656106
5903364,0.6772422,0.6723125,-0.0656106
5903367,0.6635236,0.6575991,-0.07401875
5903369,0.6635236,0.6575991,-0.07401875
5903372,0.6590852,0.6528208,-0.07401875
5903374,0.6552143,0.6486109,-0.07661668
5903377,0.6552143,0.6486109,-0.07661668
5903380,0.6510199,0.6437659,-0.08156469
5903382,0.6489125,0.6413296,-0.08156469
5903385,0.6489125,0.6413296,-0.08156469
5903387,0.6477052,0.6398023,-0.08392937
5903390,0.646193,0.6379647,-0.08622923
5903392,0.646193,0.6379647,-0.08622923
5903395,0.6431577,0.6342734,-0.08846933
5903398,0.6413296,0.6324196,-0.09278741
5903400,0.6413296,0.6324196,-0.09278741
5903404,0.6425489,0.6333472,-0.09487279
5903406,0.6425489,0.6333472,-0.09487279
5903409,0.6428534,0.6333472,-0.09487279
5903411,0.6428534,0.6324196,-0.09487279
5903414,0.6428534,0.6324196,-0.09487279
5903417,0.6419396,0.6318005,-0.09487279
5903419,0.6398023,0.6299395,-0.09691329
5903422,0.6398023,0.6299395,-0.09691329
5903424,0.6391903,0.6283845,-0.09487279
5903427,0.6391903,0.629007,-0.09487279
5903430,0.6391903,0.629007,-0.09487279
5903432,0.6391903,0.629007,-0.09691329
5903435,0.6367366,0.6262009,-0.09691329
5903437,0.6367366,0.6262009,-0.09691329
5903440,0.6351982,0.6249498,-0.09278741
5903442,0.6351982,0.6249498,-0.09278741
5903446,0.6355062,0.6249498,-0.09278741
5903449,0.6483091,0.6388841,-0.08622923
5903451,0.6483091,0.6388841,-0.08622923
5903454,0.6581939,0.6501176,-0.08156469
5903456,0.6667597,0.659382,-0.07401875
5903459,0.6667597,0.659382,-0.07401875
5903461,0.6652907,0.6584912,-0.07401875
5903464,0.6641131,0.6578966,-0.07132626
5903467,0.6641131,0.6578966,-0.07132626
5903469,0.6584912,0.652221,-0.06852804
5903472,0.6567059,0.6507192,-0.0656106
5903474,0.6567059,0.6507192,-0.0656106
5903477,0.6540186,0.6480073,-0.0656106
5903479,0.6540186,0.6480073,-0.0656106
5903482,0.652221,0.6464956,-0.0656106
5903485,0.6486109,0.6437659,-0.05934703
5903488,0.6486109,0.6437659,-0.05934703
5903491,0.6477052,0.6422443,-0.05934703
5903493,0.6440698,0.6391903,-0.05934703
5903496,0.6440698,0.6391903,-0.05934703
5903498,0.6394964,0.6348901,-0.05934703
5903501,0.6376578,0.6333472,-0.05595291
5903504,0.6376578,0.6333472,-0.05595291
5903506,0.6364292,0.6324196,-0.04845664
5903509,0.6324196,0.629007,-0.05233916
5903511,0.6324196,0.629007,-0.05233916
5903514,0.63025,0.6271377,-0.04845664
5903516,0.63025,0.6271377,-0.04845664
5903519,0.6286958,0.6258884,-0.04423466
5903522,0.6268256,0.6246366,-0.03956468
5903524,0.6268256,0.6246366,-0.03956468
5903527,0.6299395,0.6277614,-0.03956468
5903529,0.6327289,0.6308707,-0.03956468
5903533,0.6327289,0.6308707,-0.03956468
5903535,0.6345818,0.6330382,-0.03956468
5903538,0.6355062,0.6345818,0
5903541,0.6355062,0.6345818,0
5903543,0.6367366,0.6361217,-0.02797646
5903546,0.6379647,0.6373509,-0.02797646
5903548,0.6379647,0.6373509,-0.02797646
5903551,0.6391903,0.6385778,-0.02797646
5903553,0.6391903,0.6385778,-0.02797646
5903556,0.6410245,0.640108,0
5903559,0.6391903,0.6391903,0
5903561,0.6391903,0.6391903,0
5903564,0.6382713,0.6379647,-0.02797646
5903566,0.6373509,0.6376578,0
5903569,0.6373509,0.6376578,0
5903571,0.635814,0.6364292,0
5903575,0.635814,0.6367366,0
5903578,0.635814,0.6367366,0
5903580,0.635814,0.6364292,0
5903583,0.6364292,0.6373509,0
5903585,0.6364292,0.6373509,0
5903588,0.6370438,0.6382713,0
5903590,0.6370438,0.6382713,0
5903593,0.6376578,0.6388841,0
5903596,0.6391903,0.6404136,0
5903598,0.6391903,0.6404136,0
5903601,0.6404136,0.6422443,0
5903603,0.6449805,0.64589,0
5903606,0.6449805,0.64589,0
5903608,0.6464956,0.6474031,0
5903611,0.6419396,0.6431577,0
5903614,0.6419396,0.6431577,0
5903617,0.6385778,0.640108,0
5903620,0.6318005,0.6330382,0
5903622,0.6318005,0.6330382,0
5903625,0.6293179,0.63025,0.02797646
5903628,0.6293179,0.63025,0.02797646
5903630,0.6262009,0.6274496,0
5903633,0.6233823,0.6249498,0
5903635,0.6233823,0.6249498,0
5903638,0.6218109,0.6233823,0
5903640,0.6208661,0.6224399,0
5903643,0.6208661,0.6224399,0
5903646,0.6189722,0.6196041,0
5903648,0.6138933,0.6148488,0
5903651,0.6138933,0.6148488,0
5903653,0.6119779,0.6122975,0
5903656,0.6103771,0.6106976,0
5903659,0.6103771,0.6106976,0
5903662,0.6071628,0.6074851,0
5903665,0.6045791,0.605226,0
5903667,0.6045791,0.605226,0
5903670,0.6016592,0.6023093,0
5903672,0.6016592,0.6023093,0
5903675,0.598071,0.598071,0
5903677,0.5964329,0.5964329,0
5903680,0.5964329,0.5964329,0
5903683,0.5951191,0.5947903,0
5903685,0.5961047,0.5954478,0
5903688,0.5961047,0.5954478,0
5903690,0.5970887,0.5964329,0
5903693,0.5977437,0.5967609,0
5903695,0.5977437,0.5967609,0
5903698,0.598725,0.598071,0
5903702,0.598725,0.598071,0
5903704,0.598725,0.598071,0
5903707,0.5997046,0.5983981,0
5903709,0.5997046,0.5983981,0
5903712,0.5993783,0.5977437,0
5903714,0.598725,0.5974163,0
5903717,0.598725,0.5974163,0
5903720,0.598071,0.5967609,-0.02797646
5903722,0.5970887,0.5961047,0
5903725,0.5970887,0.5961047,0
5903727,0.5957764,0.5947903,0
5903730,0.5951191,0.5944612,0
5903732,0.5951191,0.5944612,0
5903735,0.5931431,0.5924829,0
5903738,0.5914913,0.5908293,0
5903740,0.5914913,0.5908293,0
5903744,0.5875081,0.5868416,0
5903746,0.5875081,0.5868416,0
5903749,0.5865081,0.5855064,0
5903751,0.5851721,0.583833,0
5903754,0.5851721,0.583833,0
5903757,0.5834977,0.5828267,0
5903759,0.5828267,0.5818186,0
5903762,0.5828267,0.5818186,0
5903764,0.5797972,0.5791218,0
5903767,0.5801346,0.5791218,0
5903769,0.5801346,0.5791218,0
5903772,0.5811456,0.5794597,0
5903775,0.5787839,0.5781073,0
5903777,0.5787839,0.5781073,0
5903780,0.5757331,0.5747126,0
5903782,0.5757331,0.5747126,0
5903785,0.5757331,0.575053,0
5903788,0.5760729,0.575053,0.02797646
5903791,0.5760729,0.575053,0.02797646
5903794,0.5781073,0.577091,0.02797646
5903796,0.5794597,0.5781073,0.02797646
5903799,0.5794597,0.5781073,0.02797646
5903801,0.5808088,0.5794597,0.02797646
5903804,0.5821548,0.5811456,0.02797646
5903806,0.5821548,0.5811456,0.02797646
5903809,0.5834977,0.5821548,0.03426402
5903812,0.5845029,0.5834977,0.03956468
5903814,0.5845029,0.5834977,0.03956468
5903817,0.583833,0.5828267,0.03956468
5903819,0.583833,0.5828267,0.03956468
5903822,0.5828267,0.5814822,0.03956468
5903824,0.5797972,0.5784457,0.04845664
5903827,0.5797972,0.5784457,0.04845664
5903831,0.5787839,0.5767518,0.05233916
5903833,0.5736903,0.5723243,0.05233916
5903836,0.5736903,0.5723243,0.05233916
5903838,0.5716401,0.569239,0.05595291
5903841,0.569239,0.5668277,0.05934703
5903844,0.569239,0.5668277,0.05934703
5903846,0.5695826,0.5668277,0.06255726
5903849,0.5709552,0.5675176,0.06852804
5903851,0.5709552,0.5675176,0.06852804
5903854,0.5716401,0.5688952,0.07132626
5903856,0.5716401,0.5688952,0.07132626
5903859,0.5730078,0.5695826,0.07132626
5903862,0.5733491,0.569239,0.07401875
5903864,0.5733491,0.569239,0.07401875
5903867,0.5733491,0.569239,0.07661668
5903869,0.5777687,0.5733491,0.08156469
5903873,0.5777687,0.5733491,0.08156469
5903875,0.5791218,0.5747126,0.08156469
5903878,0.5797972,0.5753932,0.08156469
5903881,0.5797972,0.5753932,0.08156469
5903883,0.5801346,0.575053,0.08392937
5903886,0.5808088,0.5757331,0.08622923
5903888,0.5808088,0.5757331,0.08622923
5903891,0.5801346,0.5753932,0.08622923
5903893,0.5801346,0.5753932,0.08622923
5903896,0.5787839,0.5740312,0.08392937
5903899,0.57743,0.5719823,0.08846933
5903901,0.57743,0.5719823,0.08846933
5903904,0.5764125,0.5709552,0.08846933
5903906,0.575053,0.5699261,0.08846933
5903909,0.5743721,0.5688952,0.09065409
5903911,0.5928131,0.5865081,0.09691329
5903915,0.6081289,0.6013339,0.1008706
5903918,0.6081289,0.6013339,0.1008706
5903920,0.6265134,0.618656,0.1101434
5903923,0.6546168,0.6449805,0.1219466
5903925,0.6546168,0.6449805,0.1219466
5903928,0.6688108,0.6584912,0.1297215
5903930,0.6688108,0.6584912,0.1297215
5903933,0.680988,0.66998,0.1341704
5903936,0.7010924,0.6887025,0.1426525
5903938,0.7010924,0.6887025,0.1426525
5903941,0.708588,0.6957693,0.1467098
5903943,0.7217214,0.707759,0.1532334
5903946,0.7217214,0.707759,0.1532334
5903948,0.7268545,0.7127182,0.1557664
5903951,0.7311491,0.7165515,0.1582588
5903954,0.7311491,0.7165515,0.1582588
5903956,0.7380747,0.7233464,0.1607126
5903960,0.7412493,0.7260464,0.1619255
5903962,0.7412493,0.7260464,0.1619255
5903965,0.7438844,0.7287365,0.1631294
5903967,0.7438844,0.7287365,0.1631294
5903970,0.7470343,0.7319516,0.1619255
5903973,0.7527748,0.7378095,0.1619255
5903975,0.7527748,0.7378095,0.1619255
5903978,0.7359507,0.7222635,0.1557664
5903980,0.7225344,0.7096917,0.1480375
5903983,0.7113441,0.6994157,0.1440177
5903985,0.6968932,0.6861406,0.1356209
5903988,0.6852845,0.6749268,0.1312212
5903991,0.6852845,0.6749268,0.1312212
5903993,0.6655847,0.6570037,0.1203313
5903996,0.6573014,0.649214,0.1153499
5903998,0.6573014,0.649214,0.1153499
5904002,0.6437659,0.6367366,0.1065312
5904004,0.6379647,0.6314908,0.1027921
5904007,0.6379647,0.6314908,0.1027921
5904010,0.6299395,0.6240098,0.09691329
5904012,0.6299395,0.6240098,0.09691329
5904015,0.6268256,0.6214961,0.09278741
5904017,0.6249498,0.6199199,0.08846933
5904020,0.6249498,0.6199199,0.08846933
5904022,0.6214961,0.6170725,0.08392937
5904025,0.6199199,0.615485,0.08156469
5904028,0.6199199,0.615485,0.08156469
5904030,0.612617,0.6081289,0.08156469
5904033,0.6084505,0.6045791,0.07661668
5904035,0.6084505,0.6045791,0.07661668
5904038,0.6058724,0.6023093,0.07912937
5904040,0.5997046,0.5961047,0.07401875
5904044,0.5997046,0.5961047,0.07401875
5904047,0.5970887,0.5934729,0.07132626
5904049,0.5970887,0.5934729,0.07132626
5904052,0.5944612,0.5908293,0.07132626
5904054,0.5898349,0.587175,0.06852804
5904057,0.5898349,0.587175,0.06852804
5904060,0.5891711,0.5865081,0.06852804
5904062,0.5878411,0.5855064,0.0656106
5904065,0.5878411,0.5855064,0.0656106
5904067,0.5861744,0.5831623,0.0656106
5904070,0.5841681,0.5818186,0.06255726
5904072,0.5841681,0.5818186,0.06255726
5904075,0.5794597,0.57743,0.06255726
5904078,0.577091,0.575053,0.06255726
5904080,0.577091,0.575053,0.06255726
5904083,0.575053,0.5736903,0.05934703
5904086,0.575053,0.5736903,0.05934703
5904089,0.5712977,0.5699261,0.05595291
5904091,0.5709552,0.5699261,0.05233916
5904094,0.5709552,0.5699261,0.05233916
5904097,0.5709552,0.5695826,0.05233916
5904099,0.5709552,0.5699261,0.04845664
5904102,0.5709552,0.5699261,0.04845664
5904104,0.5709552,0.5699261,0.04423466
5904107,0.5706123,0.5699261,0.04423466
5904109,0.5706123,0.5699261,0.04423466
5904112,0.564406,0.564406,0.03956468
5904115,0.5619739,0.5626699,0.03956468
5904117,0.5619739,0.5626699,0.03956468
5904120,0.5616257,0.5623221,0.02797646
5904122,0.5616257,0.5623221,0.02797646
5904125,0.5623221,0.5630175,0.01978234
5904128,0.563365,0.5640592,0
5904131,0.563365,0.5640592,0
5904134,0.5640592,0.5647526,0
5904136,0.5657911,0.5664824,0.01978234
5904139,0.5657911,0.5664824,0.01978234
5904141,0.569239,0.569239,0
5904144,0.5709552,0.5709552,0
5904146,0.5709552,0.5709552,0
5904149,0.5760729,0.5764125,0
5904152,0.5791218,0.5794597,0
5904154,0.5791218,0.5794597,0
5904157,0.5814822,0.5818186,0
5904159,0.5814822,0.5818186,0
5904162,0.5875081,0.5868416,-0.01978234
5904164,0.5891711,0.5891711,-0.01978234
5904167,0.5891711,0.5891711,-0.01978234
5904171,0.5964329,0.5961047,-0.02797646
5904173,0.5993783,0.5983981,-0.01978234
5904176,0.5993783,0.5983981,-0.01978234
5904178,0.6000308,0.5997046,0
5904181,0.6013339,0.6003569,-0.01978234
5904183,0.6013339,0.6003569,-0.01978234
5904186,0.6049027,0.6036074,-0.02797646
5904189,0.6058724,0.6045791,-0.01978234
5904191,0.6058724,0.6045791,-0.01978234
5904194,0.6032831,0.6019843,-0.02797646
5904196,0.6032831,0.6019843,-0.02797646
5904199,0.5993783,0.5983981,-0.02797646
5904201,0.6010084,0.5990517,-0.02797646
5904204,0.6010084,0.5990517,-0.02797646
5904207,0.6019843,0.6003569,-0.01978234
5904209,0.5997046,0.5977437,-0.01978234
5904212,0.5997046,0.5977437,-0.01978234
5904215,0.5990517,0.5967609,-0.02797646
5904218,0.598725,0.5967609,-0.02797646
5904220,0.5977437,0.5964329,-0.02797646
5904223,0.5977437,0.5961047,-0.01978234
5904226,0.598725,0.5970887,-0.01978234
5904228,0.598725,0.5970887,-0.01978234
5904231,0.6003569,0.5990517,-0.02797646
5904233,0.6003569,0.5990517,-0.02797646
5904236,0.6010084,0.5990517,-0.01978234
5904238,0.6010084,0.6000308,-0.01978234
5904241,0.6010084,0.6000308,-0.01978234
5904244,0.6019843,0.6010084,-0.01978234
5904246,0.6026341,0.6013339,-0.01978234
5904249,0.6026341,0.6013339,-0.01978234
5904251,0.6058724,0.6042554,-0.02797646
5904254,0.6061952,0.6049027,-0.01978234
5904258,0.6061952,0.6049027,-0.01978234
5904260,0.6068404,0.605226,-0.02797646
5904263,0.6071628,0.6055493,-0.01978234
5904265,0.6071628,0.6055493,-0.01978234
5904268,0.6068404,0.605226,-0.01978234
5904270,0.6068404,0.605226,-0.01978234
5904273,0.6058724,0.6049027,-0.01978234
5904276,0.6058724,0.6042554,-0.01978234
5904278,0.6058724,0.6042554,-0.01978234
5904281,0.6049027,0.6036074,-0.01978234
5904283,0.6032831,0.6023093,0
5904286,0.6032831,0.6023093,0
5904288,0.6016592,0.6006827,-0.01978234
5904291,0.6006827,0.5993783,-0.01978234
5904294,0.6006827,0.5993783,-0.01978234
5904296,0.5997046,0.598725,0
5904300,0.6161205,0.615167,0
5904302,0.6161205,0.615167,0
5904305,0.63025,0.6293179,0
5904307,0.6410245,0.640108,0
5904310,0.6410245,0.640108,0
5904313,0.6398023,0.6391903,0
5904315,0.6398023,0.6391903,0
5904318,0.6339648,0.633656,0
5904320,0.63025,0.6299395,0
5904323,0.63025,0.6299395,0
5904325,0.63025,0.6299395,0
5904328,0.63025,0.6299395,0
5904331,0.63025,0.6299395,0
5904333,0.6471007,0.6464956,0
5904336,0.6638185,0.6635236,0
5904338,0.6638185,0.6635236,0
5904342,0.690405,0.6901216,0.01978234
5904344,0.7013714,0.7008132,0.02797646
5904347,0.7013714,0.7008132,0.02797646
5904350,0.7184606,0.7173703,0.03956468
5904352,0.7184606,0.7173703,0.03956468
5904355,0.7252374,0.7244276,0.03956468
5904357,0.7354187,0.7340872,0.04423466
5904360,0.7354187,0.7340872,0.04423466
5904362,0.7393991,0.7378095,0.04845664
5904365,0.7428315,0.7415132,0.05233916
5904368,0.7428315,0.7415132,0.05233916
5904370,0.7480813,0.7465102,0.05233916
5904373,0.7504317,0.7491269,0.05595291
5904375,0.7504317,0.7491269,0.05595291
5904378,0.7532945,0.751474,0.05595291
5904380,0.7545922,0.7527748,0.05595291
5904384,0.7545922,0.7527748,0.05595291
5904387,0.7273927,0.7260464,0.04423466
5904389,0.7273927,0.7260464,0.04423466
5904392,0.7179157,0.7165515,0.03956468
5904394,0.6849989,0.6844273,0.02797646
5904397,0.6849989,0.6844273,0.02797646
5904399,0.6728944,0.6723125,0.01978234
5904402,0.6587883,0.6467983,0
5904405,0.6474031,0.6467983,0
5904407,0.6379647,0.6373509,0
5904410,0.629007,0.629007,0
5904412,0.629007,0.629007,0
5904415,0.615167,0.6148488,0
5904417,0.6094146,0.6090934,0
5904420,0.6094146,0.6090934,0
5904423,0.6006827,0.6006827,0
5904425,0.6006827,0.6006827,0
5904429,0.5967609,0.5967609,0
5904431,0.5911604,0.5911604,0
5904434,0.5911604,0.5911604,0
5904436,0.5888388,0.5888388,0
5904439,0.5845029,0.5845029,0
5904442,0.5845029,0.5845029,0
5904444,0.5841681,0.5845029,0
5904447,0.5845029,0.5841681,0
5904449,0.5845029,0.5841681,0
5904452,0.5824909,0.5821548,0
5904454,0.5811456,0.5808088,0
5904457,0.5811456,0.5808088,0
5904460,0.5781073,0.5777687,0
5904462,0.5781073,0.5777687,0
5904465,0.5767518,0.5764125,0
5904467,0.577091,0.5767518,0
5904471,0.577091,0.5767518,0
5904474,0.5781073,0.5777687,0
5904476,0.5753932,0.5743721,0
5904479,0.5753932,0.5743721,0
5904481,0.5740312,0.5733491,0
5904484,0.5726661,0.5716401,0
5904486,0.5726661,0.5716401,0
5904489,0.5699261,0.5699261,0
5904492,0.569239,0.5685511,-0.01978234
5904494,0.569239,0.5685511,-0.01978234
5904497,0.5682068,0.5678623,0
5904499,0.5682068,0.5678623,0
5904502,0.5675176,0.5675176,0
5904504,0.5671728,0.5661368,0
5904507,0.5671728,0.5661368,0
5904510,0.5695826,0.5685511,-0.01978234
5904513,0.5723243,0.5709552,0
5904516,0.5723243,0.5709552,0
5904518,0.5712977,0.5706123,0
5904521,0.5709552,0.5699261,0
5904523,0.5709552,0.5699261,0
5904526,0.569239,0.5685511,0
5904529,0.5685511,0.5678623,0
5904531,0.5685511,0.5678623,0
5904534,0.5678623,0.5668277,0
5904536,0.5678623,0.5668277,0
5904539,0.5675176,0.5661368,0
5904541,0.5682068,0.5675176,0
5904544,0.5682068,0.5675176,0
5904547,0.5685511,0.5678623,0
5904549,0.5695826,0.5695826,0
5904552,0.5695826,0.5695826,0
5904555,0.5709552,0.5702693,0
5904558,0.5702693,0.569239,0
5904560,0.5702693,0.569239,0
5904563,0.569239,0.5682068,0
5904566,0.5699261,0.5688952,0
5904568,0.5699261,0.5688952,0
5904571,0.5712977,0.5706123,0
5904573,0.5712977,0.5706123,0
5904576,0.5723243,0.5716401,0
5904578,0.5719823,0.5709552,0
5904581,0.5719823,0.5709552,0
5904584,0.5726661,0.5716401,0
5904586,0.5730078,0.5719823,0
5904589,0.5730078,0.5719823,0
5904591,0.5730078,0.5726661,0
5904594,0.5719823,0.5709552,0.01978234
5904596,0.5719823,0.5709552,0.01978234
5904600,0.5712977,0.5702693,0
5904603,0.5712977,0.5706123,0
5904605,0.5712977,0.5706123,0
5904608,0.5712977,0.5706123,0
5904610,0.5712977,0.5706123,0
5904613,0.5723243,0.5716401,0
5904615,0.5736903,0.5736903,0
5904618,0.5736903,0.5736903,0
5904621,0.575053,0.5743721,0.01978234
5904623,0.5764125,0.5757331,0
5904626,0.5764125,0.5757331,0
5904628,0.57743,0.57743,0
5904631,0.5784457,0.5781073,0.01978234
5904633,0.5784457,0.5781073,0.01978234
5904636,0.577091,0.5764125,0
5904640,0.5764125,0.5757331,0.01978234
5904642,0.5764125,0.5757331,0.01978234
5904645,0.5760729,0.5753932,0.01978234
5904647,0.5760729,0.5753932,0.01978234
5904650,0.5760729,0.5753932,0.01978234
5904652,0.5767518,0.5764125,0.01978234
5904655,0.5767518,0.5764125,0.01978234
5904658,0.5777687,0.57743,0.01978234
5904660,0.5767518,0.5760729,0.01978234
5904663,0.5767518,0.5760729,0.01978234
5904665,0.5767518,0.5760729,0.01978234
5904668,0.5767518,0.5760729,0.01978234
5904671,0.5767518,0.5760729,0.01978234
5904673,0.5767518,0.5760729,0.01978234
5904676,0.5757331,0.575053,0.01978234
5904678,0.5757331,0.575053,0.01978234
5904681,0.5757331,0.575053,0.01978234
5904684,0.575053,0.5743721,0.02797646
5904687,0.575053,0.5743721,0.02797646
5904690,0.5747126,0.5743721,0.02797646
5904692,0.5747126,0.5743721,0.02797646
5904695,0.5733491,0.5726661,0.01978234
5904697,0.5726661,0.5719823,0.02797646
5904700,0.5726661,0.5719823,0.02797646
5904702,0.5730078,0.5726661,0.01978234
5904705,0.5736903,0.5736903,0.01978234
5904708,0.5736903,0.5736903,0.01978234
5904710,0.5767518,0.5767518,0.01978234
5904713,0.5794597,0.5787839,0.01978234
5904715,0.5794597,0.5787839,0.01978234
5904718,0.5818186,0.5814822,0.01978234
5904720,0.583833,0.583833,0.02797646
5904723,0.583833,0.583833,0.02797646
5904727,0.5855064,0.5855064,0.01978234
5904729,0.5855064,0.5855064,0.01978234
5904732,0.5881739,0.5878411,0.02797646
5904734,0.5881739,0.5878411,0.02797646
5904737,0.5881739,0.5878411,0.02797646
5904739,0.5891711,0.5885065,0.01978234
5904742,0.5888388,0.5881739,0.01978234
5904745,0.5888388,0.5881739,0.01978234
5904747,0.5878411,0.5875081,0.01978234
5904750,0.5888388,0.5888388,0.01978234
5904752,0.5888388,0.5888388,0.01978234
5904755,0.5898349,0.5898349,0.01978234
5904757,0.589503,0.5888388,0.01978234
5904760,0.589503,0.5888388,0.01978234
5904763,0.5888388,0.5881739,0.01978234
5904765,0.5888388,0.5881739,0.01978234
5904769,0.5888388,0.5885065,0
5904771,0.5888388,0.5885065,0
5904774,0.5888388,0.5885065,0
5904776,0.5898349,0.589503,0.01978234
5904779,0.5908293,0.5901666,0
5904782,0.5908293,0.5901666,0
5904784,0.5911604,0.591822,0.01978234
5904787,0.5931431,0.5924829,0
5904789,0.5931431,0.5924829,0
5904792,0.5941319,0.5934729,0
5904794,0.5944612,0.5941319,0
5904797,0.5944612,0.5941319,0
5904800,0.5941319,0.5941319,0
5904802,0.5941319,0.5941319,0
5904805,0.5934729,0.5934729,0
5904807,0.5928131,0.5924829,0
5904811,0.5928131,0.5924829,0
5904813,0.5898349,0.589503,0
5904816,0.5881739,0.5881739,0
5904819,0.5881739,0.5881739,0
5904821,0.5875081,0.5868416,0
5904824,0.5865081,0.5865081,0
5904826,0.5865081,0.5865081,0
5904829,0.5848376,0.5845029,0
5904831,0.5841681,0.5841681,0
5904834,0.5841681,0.5841681,0
5904837,0.583833,0.583833,0
5904839,0.583833,0.583833,0
5904842,0.5834977,0.5828267,0
5904844,0.5885065,0.5878411,0
5904847,0.5885065,0.5878411,0
5904849,0.590498,0.589503,0
5904852,0.5934729,0.5928131,0
5904856,0.5934729,0.5928131,0
5904858,0.6000308,0.5990517,0
5904861,0.6036074,0.6026341,0
5904863,0.6036074,0.6026341,0
5904866,0.6058724,0.6055493,0
5904868,0.6148488,0.614212,0
5904871,0.6148488,0.614212,0
5904874,0.6177064,0.6170725,0
5904876,0.6177064,0.6170725,0
5904879,0.6218109,0.6211812,0
5904881,0.6233823,0.6227542,0
5904884,0.6233823,0.6227542,0
5904887,0.6252628,0.6240098,0
5904889,0.6277614,0.6265134,0
5904892,0.6277614,0.6265134,0
5904894,0.6277614,0.6265134,0.01978234
5904898,0.6271377,0.6258884,0
5904900,0.6271377,0.6258884,0
5904903,0.628073,0.6274496,0
5904906,0.6293179,0.6283845,0
5904908,0.6293179,0.6283845,0
5904911,0.6277614,0.6268256,0
5904913,0.6277614,0.6268256,0
5904916,0.6258884,0.6249498,0.02797646
5904918,0.6240098,0.6233823,0
5904921,0.6240098,0.6233823,0
5904924,0.6230683,0.6227542,0
5904926,0.6205508,0.6199199,0
5904929,0.6205508,0.6199199,0
5904931,0.6192883,0.6189722,0
5904934,0.6158028,0.615485,0.01978234
5904936,0.6158028,0.615485,0.01978234
5904940,0.6103771,0.6097356,0.01978234
5904943,0.6068404,0.6061952,0.01978234
5904945,0.6068404,0.6061952,0.01978234
5904948,0.6016592,0.6006827,0.02797646
5904950,0.6016592,0.6006827,0.02797646
5904953,0.5990517,0.598071,0.01978234
5904955,0.5967609,0.5961047,0.01978234
5904958,0.5967609,0.5961047,0.01978234
5904961,0.591822,0.5911604,0.01978234
5904963,0.5888388,0.5885065,0.02797646
5904966,0.5888388,0.5885065,0.02797646
5904968,0.5868416,0.5855064,0.03426402
5904971,0.5828267,0.5818186,0.03426402
5904973,0.5828267,0.5818186,0.03426402
5904976,0.5834977,0.5821548,0.02797646
5904979,0.5845029,0.5834977,0.03426402
5904982,0.5845029,0.5834977,0.03426402
5904985,0.5851721,0.583833,0.04845664
5904987,0.5858405,0.5841681,0.04845664
5904990,0.5858405,0.5841681,0.04845664
5904992,0.5861744,0.5848376,0.05233916
5904995,0.5861744,0.5848376,0.05233916
5904998,0.5861744,0.5848376,0.05233916
5905000,0.5865081,0.5848376,0.05233916
5905003,0.5865081,0.5848376,0.05233916
5905005,0.5908293,0.5901666,0.04845664
5905008,0.5964329,0.5951191,0.04845664
5905010,0.5964329,0.5951191,0.04845664
5905013,0.6039315,0.6029587,0.05233916
5905016,0.615167,0.6148488,0.05233916
5905018,0.615167,0.6148488,0.05233916
5905021,0.6252628,0.6249498,0.05595291
5905024,0.6167554,0.616438,0.05233916
5905027,0.6167554,0.616438,0.05233916
5905029,0.6036074,0.6029587,0.04845664
5905032,0.6036074,0.6029587,0.04845664
5905035,0.5560232,0.5549665,0.03426402
5905037,0.5252593,0.5245137,0.02797646
5905040,0.5252593,0.5245137,0.02797646
5905042,0.5000685,0.4988932,0
5905045,0.4471871,0.4458725,0
5905047,0.4471871,0.4458725,0
5905050,0.5105241,0.508604,0
5905053,0.5623221,0.5605795,0
5905055,0.5623221,0.5605795,0
5905058,0.612617,0.6100564,-0.02797646
5905060,0.618656,0.6161205,-0.02797646
5905063,0.618656,0.6161205,-0.02797646
5905065,0.6240098,0.6214961,-0.03426402
5905069,0.6240098,0.6214961,-0.03426402
5905072,0.615485,0.6138933,-0.03426402
5905074,0.612617,0.6113381,-0.03426402
5905077,0.612617,0.6113381,-0.03426402
5905079,0.614212,0.614212,-0.03426402
5905082,0.6148488,0.615485,-0.02797646
5905085,0.6148488,0.615485,-0.02797646
5905087,0.6286958,0.6305605,-0.01978234
5905090,0.6342734,0.6361217,0
5905092,0.6342734,0.6361217,0
5905095,0.6428534,0.6449805,0
5905097,0.6801254,0.6818494,0
5905100,0.6801254,0.6818494,0
5905103,0.7058211,0.7069291,0.01978234
5905105,0.7058211,0.7069291,0.01978234
5905108,0.7279305,0.7281993,0.04423466
5905111,0.729005,0.7306137,0.03426402
5905114,0.729005,0.7306137,0.03426402
5905116,0.7322189,0.7351527,0.01978234
5905119,0.7066523,0.711069,0
5905122,0.7066523,0.711069,0
5905124,0.6693957,0.675796,0
5905127,0.6422443,0.6495153,0
5905129,0.6422443,0.6495153,0
5905132,0.6016592,0.6100564,-0.03426402
5905134,0.6003569,0.6094146,-0.04423466
5905137,0.6003569,0.6094146,-0.04423466
5905140,0.6058724,0.6161205,-0.06255726
5905142,0.6058724,0.6161205,-0.06255726
5905145,0.6110179,0.6224399,-0.06852804
5905147,0.615485,0.6271377,-0.07401875
5905150,0.615485,0.6271377,-0.07401875
5905153,0.6116581,0.6249498,-0.07912937
5905156,0.6106976,0.6243232,-0.08156469
5905159,0.6106976,0.6243232,-0.08156469
5905161,0.616438,0.63025,-0.08622923
5905164,0.6208661,0.6351982,-0.08846933
5905166,0.6208661,0.6351982,-0.08846933
5905169,0.5736903,0.5834977,-0.09065409
5905171,0.5308178,0.5370479,-0.08846933
5905174,0.5308178,0.5370479,-0.08846933
5905177,0.4813265,0.4825446,-0.08156469
5905179,0.4813265,0.4825446,-0.08156469
5905182,0.4401304,0.4365593,-0.07912937
5905184,0.4383485,0.4356619,-0.08156469
5905187,0.4383485,0.4356619,-0.08156469
5905189,0.4356619,0.4334104,-0.08392937
5905192,0.4233615,0.4191812,-0.09278741
5905196,0.4233615,0.4191812,-0.09278741
5905198,0.4125943,0.4068635,-0.1008706
5905201,0.4029978,0.3951527,-0.1083524
5905203,0.4029978,0.3951527,-0.1083524
5905206,0.416371,0.4111691,-0.1101434
5905208,0.4261257,0.4233615,-0.1119058
5905211,0.4261257,0.4233615,-0.1119058
5905214,0.4432315,0.4427898,-0.1119058
5905216,0.4432315,0.4427898,-0.1119058
5905219,0.4698059,0.4751895,-0.1136409
5905221,0.4813265,0.4881886,-0.1136409
5905224,0.4813265,0.4881886,-0.1136409
5905226,0.4929749,0.5020211,-0.1119058
5905229,0.5016313,0.5120549,-0.1119058
5905232,0.5016313,0.5120549,-0.1119058
5905234,0.5082192,0.5203939,-0.1101434
5905238,0.5151029,0.5282311,-0.1101434
5905240,0.5151029,0.5282311,-0.1101434
5905243,0.5230194,0.5374122,-0.1101434
5905245,0.5245137,0.5399548,-0.1101434
5905248,0.5245137,0.5399548,-0.1101434
5905251,0.5274898,0.5432066,-0.1083524
5905253,0.5274898,0.5432066,-0.1083524
5905256,0.5293413,0.5460806,-0.1083524
5905258,0.5424856,0.5588315,-0.1083524
5905261,0.5424856,0.5588315,-0.1083524
5905263,0.5528469,0.5695826,-0.1083524
5905266,0.5616257,0.5781073,-0.1065312
5905269,0.5616257,0.5781073,-0.1065312
5905271,0.5549665,0.5716401,-0.1046783
5905274,0.5581307,0.5747126,-0.09891172
5905276,0.5581307,0.5747126,-0.09891172
5905280,0.5650989,0.5821548,-0.09891172
5905282,0.5719823,0.5881739,-0.1027921
5905285,0.5719823,0.5881739,-0.1027921
5905288,0.5528469,0.5702693,-0.09487279
5905290,0.5528469,0.5702693,-0.09487279
5905293,0.5623221,0.5791218,-0.09065409
5905295,0.5695826,0.5861744,-0.08846933
5905298,0.5695826,0.5861744,-0.08846933
5905301,0.5695826,0.5861744,-0.08846933
5905303,0.5695826,0.5861744,-0.08846933
5905306,0.5695826,0.5861744,-0.08846933
5905308,0.5695826,0.5861744,-0.08846933
5905311,0.5560232,0.5730078,-0.07661668
5905313,0.5560232,0.5730078,-0.07661668
5905316,0.5503638,0.5675176,-0.07401875
5905319,0.5623221,0.5791218,-0.07132626
5905321,0.5623221,0.5791218,-0.07132626
5905325,0.5661368,0.5828267,-0.0656106
5905327,0.5612772,0.5777687,-0.06255726
5905330,0.5612772,0.5777687,-0.06255726
5905332,0.5574291,0.5733491,-0.06255726
5905335,0.5574291,0.5733491,-0.06255726
5905338,0.5726661,0.5891711,-0.05934703
5905340,0.5784457,0.5947903,-0.05934703
5905343,0.5784457,0.5947903,-0.05934703
5905345,0.5723243,0.5885065,-0.05595291
5905348,0.5678623,0.583833,-0.05233916
5905350,0.5678623,0.583833,-0.05233916
5905353,0.55778,0.5743721,-0.04845664
5905356,0.5595313,0.5757331,-0.04845664
5905358,0.5595313,0.5757331,-0.04845664
5905361,0.5675176,0.5831623,-0.04845664
5905363,0.5736903,0.5898349,-0.04845664
5905367,0.5736903,0.5898349,-0.04845664
5905369,0.5868416,0.6026341,-0.04845664
5905372,0.5868416,0.6026341,-0.04845664
5905375,0.5977437,0.6138933,-0.05233916
5905377,0.6214961,0.6370438,-0.04845664
5905380,0.6214961,0.6370438,-0.04845664
5905382,0.6305605,0.646193,-0.05233916
5905385,0.640108,0.6552143,-0.05595291
5905387,0.640108,0.6552143,-0.05595291
5905390,0.6477052,0.6629335,-0.05233916
5905393,0.6540186,0.6691033,-0.05595291
5905395,0.6540186,0.6691033,-0.05595291
5905398,0.659382,0.6743467,-0.05934703
5905400,0.6629335,0.6778198,-0.05934703
5905403,0.6629335,0.6778198,-0.05934703
5905405,0.6655847,0.6798376,-0.06255726
5905409,0.6655847,0.6798376,-0.06255726
5905412,0.667053,0.6812752,-0.06255726
5905414,0.6685182,0.6829963,-0.06255726
5905417,0.6685182,0.6829963,-0.06255726
5905419,0.6676395,0.6824232,-0.06255726
5905422,0.6676395,0.6818494,-0.0656106
5905424,0.6676395,0.6818494,-0.0656106
5905427,0.667053,0.6815624,-0.06852804
5905430,0.6673463,0.6821364,-0.06852804
5905432,0.6673463,0.6821364,-0.06852804
5905435,0.6691033,0.6841414,-0.07132626
5905437,0.6708556,0.6852845,-0.07132626
5905440,0.6708556,0.6852845,-0.07132626
5905442,0.6611602,0.675796,-0.06852804
5905445,0.6611602,0.675796,-0.06852804
5905448,0.6474031,0.6617518,-0.06852804
5905451,0.6314908,0.6452838,-0.06852804
5905454,0.6314908,0.6452838,-0.06852804
5905456,0.6173896,0.6314908,-0.0656106
5905459,0.6006827,0.6148488,-0.06255726
5905461,0.6006827,0.6148488,-0.06255726
5905464,0.5868416,0.6010084,-0.06255726
5905467,0.575053,0.589503,-0.05934703
5905469,0.575053,0.589503,-0.05934703
5905472,0.5560232,0.5702693,-0.05934703
5905474,0.5478694,0.5619739,-0.05934703
5905477,0.5478694,0.5619739,-0.05934703
5905479,0.5406791,0.5549665,-0.06255726
5905482,0.5406791,0.5549665,-0.06255726
5905485,0.533392,0.5478694,-0.05934703
5905487,0.5271187,0.5417637,-0.06255726
5905490,0.5271187,0.5417637,-0.06255726
5905492,0.5211454,0.5359538,-0.06255726
5905496,0.5166202,0.5311863,-0.06255726
5905499,0.5166202,0.5311863,-0.06255726
5905501,0.5120549,0.5271187,-0.06255726
5905504,0.509757,0.5248867,-0.05934703
5905506,0.509757,0.5248867,-0.05934703
5905509,0.5082192,0.5226451,-0.06255726
5905511,0.5043544,0.5196414,-0.05934703
5905514,0.5043544,0.5196414,-0.05934703
5905517,0.5066768,0.5218958,-0.05934703
5905519,0.5066768,0.5218958,-0.05934703
5905522,0.5082192,0.5233933,-0.05934703
5905524,0.5093729,0.5245137,-0.05934703
5905527,0.5093729,0.5245137,-0.05934703
5905529,0.5128186,0.5271187,-0.05595291
5905532,0.5143426,0.5286014,-0.05934703
5905536,0.5143426,0.5286014,-0.05934703
5905538,0.5151029,0.53008,-0.05934703
5905541,0.5158621,0.530449,-0.05934703
5905543,0.5158621,0.530449,-0.05934703
5905546,0.5143426,0.5278606,-0.05934703
5905548,0.5128186,0.5267473,-0.06255726
5905551,0.5128186,0.5267473,-0.06255726
5905554,0.5120549,0.5256317,-0.05934703
5905556,0.5120549,0.5256317,-0.05934703
5905559,0.5093729,0.5226451,-0.05934703
5905561,0.508604,0.5215207,-0.06255726
5905564,0.508604,0.5215207,-0.06255726
5905566,0.5074486,0.5203939,-0.06255726
5905569,0.5082192,0.5207698,-0.06255726
5905572,0.5082192,0.5207698,-0.06255726
5905574,0.508604,0.5211454,-0.06255726
5905577,0.5070629,0.5196414,-0.0656106
5905580,0.5070629,0.5196414,-0.0656106
5905583,0.5062904,0.5188877,-0.0656106
5905585,0.5059038,0.5177552,-0.0656106
5905588,0.5059038,0.5177552,-0.0656106
5905591,0.5055169,0.5173771,-0.0656106
5905593,0.5055169,0.5173771,-0.0656106
5905596,0.4996771,0.5116726,-0.0656106
5905598,0.4981082,0.5093729,-0.06255726
5905601,0.4981082,0.5093729,-0.06255726
5905603,0.4933717,0.5055169,-0.06255726
5905606,0.4921804,0.5039662,-0.05934703
5905609,0.4921804,0.5039662,-0.05934703
5905611,0.4885893,0.5004597,-0.06255726
5905614,0.4829499,0.4949555,-0.06255726
5905616,0.4829499,0.4949555,-0.06255726
5905619,0.4788812,0.4909863,-0.06255726
5905622,0.4756011,0.4873863,-0.0656106
5905625,0.4756011,0.4873863,-0.0656106
5905628,0.464781,0.477244,-0.0656106
5905630,0.4609765,0.4731261,-0.06852804
5905633,0.4609765,0.4731261,-0.06852804
5905635,0.4463111,0.4588492,-0.07132626
5905638,0.4463111,0.4588492,-0.07132626
5905640,0.4410186,0.4528397,-0.07401875
5905643,0.4029978,0.4092611,-0.07401875
5905646,0.4029978,0.4092611,-0.07401875
5905648,0.3454843,0.343781,-0.07661668
5905651,0.3127867,0.3051875,-0.07912937
5905653,0.3127867,0.3051875,-0.07912937
5905656,0.261696,0.2438933,-0.08622923
5905658,0.2601963,0.2430897,-0.08156469
5905661,0.2601963,0.2430897,-0.08156469
5905665,0.2586879,0.2414744,-0.07912937
5905667,0.272681,0.2594432,-0.07132626
5905670,0.272681,0.2594432,-0.07132626
5905672,0.2762456,0.2639296,-0.07132626
5905675,0.2762456,0.2639296,-0.07132626
5905677,0.2811602,0.2705197,-0.06852804
5905680,0.2859903,0.276953,-0.07132626
5905683,0.2859903,0.276953,-0.07132626
5905685,0.2811602,0.2712421,-0.07912937
5905688,0.2712421,0.2609472,-0.08846933
5905690,0.2712421,0.2609472,-0.08846933
5905693,0.2676108,0.2556444,-0.09065409
5905695,0.2594432,0.2462884,-0.09691329
5905698,0.2594432,0.2462884,-0.09691329
5905701,0.2741124,0.2639296,-0.08392937
5905703,0.2960753,0.2900664,-0.06852804
5905707,0.2960753,0.2900664,-0.06852804
5905709,0.3165179,0.3127867,-0.05934703
5905712,0.3165179,0.3127867,-0.05934703
5905715,0.3339648,0.3310224,-0.05233916
5905717,0.3658403,0.3636945,-0.05233916
5905720,0.3658403,0.3636945,-0.05233916
5905722,0.3805216,0.3784592,-0.05934703
5905725,0.4083038,0.4059006,-0.07661668
5905727,0.4083038,0.4059006,-0.07661668
5905730,0.4215088,0.4187142,-0.08846933
5905733,0.4270431,0.4242849,-0.07912937
5905735,0.4270431,0.4242849,-0.07912937
5905738,0.4228991,0.4201138,-0.05934703
5905740,0.4125943,0.4102162,-0.01978234
5905743,0.4125943,0.4102162,-0.01978234
5905745,0.4068635,0.4059006,0
5905748,0.4068635,0.4059006,0
5905752,0.3995845,0.3990945,0.04423466
5905754,0.3966355,0.3971285,0.06255726
5905757,0.3966355,0.3971285,0.06255726
5905759,0.3951527,0.3961419,0.07661668
5905762,0.3881583,0.3901695,0.1027921
5905764,0.3881583,0.3901695,0.1027921
5905767,0.3846134,0.3871488,0.1101434
5905770,0.3820612,0.3851218,0.1186941
5905772,0.3820612,0.3851218,0.1186941
5905775,0.3784592,0.3810355,0.1312212
5905777,0.3758652,0.3794918,0.1370561
5905780,0.3758652,0.3794918,0.1370561
5905782,0.3722032,0.3753442,0.1426525
5905785,0.3722032,0.3753442,0.1426525
5905788,0.3700944,0.3727285,0.14537
5905790,0.3685048,0.3716771,0.1467098
5905794,0.3685048,0.3716771,0.1467098
5905796,0.3690354,0.3711503,0.1519511
5905799,0.3690354,0.3711503,0.1545051
5905801,0.3690354,0.3711503,0.1545051
5905804,0.3716771,0.3727285,0.1570175
5905807,0.3748225,0.3748225,0.1582588
5905809,0.3748225,0.3748225,0.1582588
5905812,0.3763854,0.3758652,0.1594904
5905814,0.3774237,0.3769049,0.1607126
5905817,0.3774237,0.3769049,0.1607126
5905819,0.3851218,0.3830841,0.1607126
5905822,0.3851218,0.3830841,0.1607126
5905825,0.3876539,0.3856296,0.1619255
5905827,0.3971285,0.393167,0.1607126
5905830,0.3971285,0.393167,0.1607126
5905832,0.4005627,0.3961419,0.1619255
5905836,0.3971285,0.393167,0.1607126
5905838,0.3971285,0.393167,0.1607126
5905841,0.3961419,0.3921704,0.1607126
5905844,0.3951527,0.3916712,0.1594904
5905846,0.3951527,0.3916712,0.1594904
5905849,0.3946573,0.3906707,0.1582588
5905851,0.3995845,0.3951527,0.1582588
5905854,0.3995845,0.3951527,0.1582588
5905856,0.4228991,0.416371,0.1607126
5905859,0.4228991,0.416371,0.1607126
5905862,0.4387946,0.4311472,0.1631294
5905864,0.4528397,0.4445539,0.165511
5905867,0.4528397,0.4445539,0.165511
5905869,0.4579955,0.4489339,0.1690205
5905872,0.4605518,0.4511079,0.1713202
5905874,0.4605518,0.4511079,0.1713202
5905878,0.4743652,0.4652019,0.1701742
5905881,0.4973219,0.4877876,0.1701742
5905883,0.4973219,0.4877876,0.1701742
5905886,0.5105241,0.5020211,0.1678588
5905888,0.5326577,0.5245137,0.1643245
5905891,0.5326577,0.5245137,0.1643245
5905893,0.5116726,0.5078341,0.1557664
5905896,0.5116726,0.5078341,0.1557664
5905899,0.4949555,0.4949555,0.1506579
5905901,0.4656223,0.4718838,0.1440177
5905904,0.4419051,0.4545648,0.1384764
5905906,0.4224361,0.4405747,0.1356209
5905909,0.3956476,0.4224361,0.132704
5905912,0.3956476,0.4224361,0.132704
5905914,0.354982,0.3981127,0.1297215
5905917,0.3763854,0.4111691,0.1235407
5905920,0.3763854,0.4111691,0.1235407
5905923,0.3941611,0.4228991,0.1186941
5905925,0.4265846,0.4449939,0.1101434
5905928,0.4265846,0.4449939,0.1101434
5905931,0.4414621,0.4554249,0.1065312
5905933,0.4414621,0.4554249,0.1065312
5905936,0.4660423,0.4751895,0.09891172
5905938,0.5043544,0.5082192,0.09278741
5905941,0.5043544,0.5082192,0.09278741
5905943,0.5248867,0.5267473,0.08622923
5905946,0.5421248,0.5428462,0.08156469
5905949,0.5421248,0.5428462,0.08156469
5905951,0.5702693,0.569239,0.07401875
5905954,0.5814822,0.5801346,0.07132626
5905956,0.5814822,0.5801346,0.07132626
5905959,0.5914913,0.5898349,0.07132626
5905961,0.6000308,0.598071,0.0656106
5905965,0.6000308,0.598071,0.0656106
5905968,0.5908293,0.5888388,0.0656106
5905970,0.5787839,0.5764125,0.06255726
5905973,0.5787839,0.5764125,0.06255726
5905975,0.5753932,0.5730078,0.05934703
5905978,0.5753932,0.5730078,0.05934703
5905980,0.5730078,0.5706123,0.05934703
5905983,0.5688952,0.5668277,0.05595291
5905986,0.5688952,0.5668277,0.05595291
5905988,0.5675176,0.5647526,0.05934703
5905991,0.563365,0.5612772,0.05595291
5905993,0.563365,0.5612772,0.05595291
5905996,0.5612772,0.5591815,0.06255726
5905998,0.5602303,0.5581307,0.05595291
5906001,0.5584812,0.556375,0.05934703
5906004,0.5570779,0.5549665,0.05595291
5906007,0.5567266,0.5549665,0.05595291
5906010,0.5567266,0.5549665,0.05595291
5906012,0.5514293,0.5482264,0.06255726
5906015,0.5514293,0.5482264,0.06255726
5906017,0.5492961,0.5467969,0.0656106
5906020,0.5460806,0.5432066,0.06255726
5906023,0.5460806,0.5432066,0.06255726
5906025,0.5457222,0.5424856,0.06852804
5906028,0.4945601,0.4909863,0.06852804
5906030,0.4945601,0.4909863,0.06852804
5906033,0.4756011,0.4718838,0.06852804
5906035,0.4731261,0.4693892,0.06852804
5906038,0.4731261,0.4693892,0.06852804
5906041,0.4821389,0.4784724,0.0656106
5906043,0.4897892,0.4861804,0.06852804
5906046,0.4897892,0.4861804,0.06852804
5906049,0.5047422,0.5016313,0.06852804
5906052,0.5047422,0.5016313,0.06852804
5906054,0.5120549,0.508604,0.06852804
5906057,0.518133,0.5147229,0.06852804
5906060,0.518133,0.5147229,0.06852804
5906062,0.4760123,0.4727124,0.07661668
5906065,0.4605518,0.4579955,0.07912937
5906067,0.4605518,0.4579955,0.07912937
5906070,0.4063823,0.4063823,0.09487279
5906072,0.3861367,0.3876539,0.1008706
5906075,0.3861367,0.3876539,0.1008706
5906078,0.4168407,0.4177785,0.1170339
5906080,0.427501,0.4284154,0.1251145
5906083,0.427501,0.4284154,0.1251145
5906085,0.4813265,0.4801054,0.1398823
5906088,0.4813265,0.4801054,0.1398823
5906091,0.501241,0.4992853,0.14537
5906094,0.5286014,0.5252593,0.1532334
5906097,0.5286014,0.5252593,0.1532334
5906099,0.5699261,0.5654452,0.1643245
5906102,0.5957764,0.590498,0.1713202
5906104,0.5957764,0.590498,0.1713202
5906107,0.6039315,0.598071,0.1845175
5906109,0.5931431,0.5875081,0.1897456
5906112,0.5931431,0.5875081,0.1897456
5906115,0.5784457,0.5733491,0.2017412
5906117,0.5901666,0.5834977,0.2130625
5906120,0.5901666,0.5834977,0.2130625
5906122,0.6003569,0.5924829,0.2229358
5906125,0.6003569,0.5924829,0.2229358
5906128,0.5947903,0.5848376,0.2398483
5906130,0.5934729,0.5828267,0.2478722
5906134,0.5934729,0.5828267,0.2478722
5906136,0.6230683,0.6084505,0.2646699
5906139,0.6345818,0.6183397,0.2712421
5906141,0.6345818,0.6183397,0.2712421
5906144,0.7047113,0.680413,0.2954137
5906147,0.7319516,0.7044336,0.3058279
5906149,0.7319516,0.7044336,0.3058279
5906152,0.7438844,0.7129927,0.315279
5906154,0.7651502,0.7287365,0.3304307
5906157,0.7651502,0.7287365,0.3304307
5906159,0.7905577,0.7509531,0.339197
5906162,0.7905577,0.7509531,0.339197
5906165,0.8320423,0.7875819,0.3538778
5906167,0.8301588,0.7835966,0.358274
5906170,0.8301588,0.7835966,0.358274
5906172,0.8313365,0.7805943,0.3674413
5906176,0.844183,0.7912999,0.3716771
5906178,0.844183,0.7912999,0.3716771
5906181,0.8670527,0.8110828,0.3810355
5906184,0.8600281,0.8021067,0.382573
5906186,0.8600281,0.8021067,0.382573
5906189,0.8552368,0.7959845,0.3856296
5906191,0.840466,0.7780834,0.3891652
5906194,0.840466,0.7780834,0.3891652
5906196,0.8315719,0.7679582,0.3906707
5906199,0.8315719,0.7679582,0.3906707
5906202,0.8130105,0.7467723,0.3921704
5906204,0.8038125,0.7362165,0.393167
5906207,0.8038125,0.7362165,0.393167
5906209,0.7865875,0.7162784,0.3951527
5906212,0.7788376,0.7072059,0.3966355
5906214,0.7788376,0.7072059,0.3966355
5906217,0.7610474,0.6869956,0.3961419
5906221,0.7375443,0.6584912,0.3971285
5906223,0.7375443,0.6584912,0.3971285
5906226,0.7200928,0.6385778,0.3956476
5906228,0.6960504,0.6097356,0.3941611
5906231,0.6960504,0.6097356,0.3941611
5906233,0.7024865,0.615485,0.393167
5906236,0.7024865,0.615485,0.393167
5906239,0.7140896,0.6258884,0.3941611
5906241,0.7013714,0.6103771,0.393167
5906244,0.7013714,0.6103771,0.393167
5906246,0.6912548,0.5983981,0.3921704
5906249,0.615167,0.5173771,0.3810355
5906251,0.615167,0.5173771,0.3810355
5906254,0.5602303,0.4601268,0.3727285
5906257,0.5166202,0.4135417,0.3658403
5906259,0.5166202,0.4135417,0.3658403
5906263,0.4116447,0.302612,0.3460502
5906265,0.4054182,0.2900664,0.3494264
5906268,0.4054182,0.2900664,0.3494264
5906270,0.4005627,0.2790645,0.3522151
5906273,0.4005627,0.2790645,0.3522151
5906276,0.4039677,0.2697954,0.3615361
5906278,0.4102162,0.2697954,0.3685048
5906281,0.4102162,0.2697954,0.3685048
5906283,0.4149588,0.268341,0.3732531
5906286,0.4149588,0.268341,0.3732531
5906288,0.4149588,0.268341,0.3732531
5906291,0.4149588,0.268341,0.3732531
5906294,0.454995,0.301316,0.3891652
5906296,0.454995,0.301316,0.3891652
5906299,0.5315546,0.3700944,0.4201138
5906301,0.5678623,0.4029978,0.4347627
5906305,0.5678623,0.4029978,0.4347627
5906307,0.5983981,0.4306931,0.4471871
5906310,0.6513204,0.4735395,0.4747775
5906313,0.6513204,0.4735395,0.4747775
5906315,0.6717301,0.4897892,0.4857778
5906318,0.6717301,0.4897892,0.4857778
5906320,0.7033216,0.5047422,0.5132
5906323,0.7160051,0.5112901,0.5241405
5906326,0.7160051,0.5112901,0.5241405
5906328,0.6419396,0.3896677,0.5359538
5906331,0.6192883,0.3449174,0.5406791
5906333,0.6192883,0.3449174,0.5406791
5906336,0.5818186,0.2690692,0.5442861
5906338,0.5460806,0.1713202,0.5507192
5906341,0.5460806,0.1713202,0.5507192
5906344,0.5260038,0.1251145,0.5410409
5906347,0.508604,-0.1027921,0.5241405
5906350,0.508604,-0.1027921,0.5241405
5906352,0.5066768,-0.1203313,0.5166202
5906355,0.5066768,-0.1203313,0.5166202
5906357,0.508604,-0.1426525,0.5105241
5906360,0.5196414,-0.1897456,0.5055169
5906363,0.5196414,-0.1897456,0.5055169
5906365,0.5263757,-0.2112177,0.5035778
5906368,0.5230194,-0.1153499,0.5297108
5906370,0.5230194,-0.1153499,0.5297108
5906373,0.5271187,-0.07912937,0.5395923
5906375,0.5399548,-0.02797646,0.5574291
5906378,0.5399548,-0.02797646,0.5574291
5906381,0.5719823,0.07132626,0.5851721
5906383,0.5970887,0.1203313,0.6023093
5906386,0.5970887,0.1203313,0.6023093
5906388,0.6419396,0.1938267,0.6293179
5906392,0.6419396,0.1938267,0.6293179
5906394,0.6821364,0.2502292,0.652221
5906397,0.7184606,0.2967354,0.6720214
5906400,0.7184606,0.2967354,0.6720214
5906402,0.8084246,0.4025119,0.7181882
5906405,0.8588898,0.4588492,0.7433581
5906407,0.8588898,0.4588492,0.7433581
5906410,1.02259,0.6419396,0.8132511
5906412,1.130731,0.7589878,0.8556943
5906415,1.130731,0.7589878,0.8556943
5906418,1.54383,1.21997,0.9671232
5906420,1.903412,1.597774,1.059618
5906423,1.903412,1.597774,1.059618
5906425,2.191781,1.951439,1.043615
5906428,2.191781,1.951439,1.043615
5906430,2.190173,1.994589,0.9705567
5906434,2.077354,1.876801,0.955111
5906437,2.077354,1.876801,0.955111
5906439,1.927626,1.716916,0.9389946
5906442,1.801571,1.561601,0.9514161
5906444,1.801571,1.561601,0.9514161
5906447,1.705595,1.437494,0.9638805
5906449,1.552426,1.22029,0.9952432
5906452,1.552426,1.22029,0.9952432
5906455,1.492921,1.124658,1.01317
5906457,1.407226,0.9671232,1.048292
5906460,1.407226,0.9671232,1.048292
5906462,1.37743,0.9011378,1.066061
5906465,1.37743,0.9011378,1.066061
5906467,1.31239,0.7850935,1.074108
5906470,1.233528,0.608772,1.092711
5906473,1.233528,0.608772,1.092711
5906476,1.192061,0.5128186,1.095573
5906479,1.146713,0.3615361,1.107122
5906481,1.146713,0.3615361,1.107122
5906484,1.148588,0.3232465,1.121347
5906486,1.158596,0.2601963,1.148418
5906489,1.158596,0.2601963,1.148418
5906492,1.169858,0.2306999,1.166843
5906494,1.18184,0.2046302,1.18399
5906497,1.18184,0.2046302,1.18399
5906499,1.199752,0.1203313,1.213375
5906502,1.199752,0.1203313,1.213375
5906504,1.209175,0.07132626,1.22621
5906507,1.23733,-0.08392937,1.252889
5906510,1.23733,-0.08392937,1.252889
5906512,1.255853,-0.1370561,1.266559
5906515,1.299503,-0.2193969,1.299052
5906518,1.299503,-0.2193969,1.299052
5906521,1.323378,-0.25101,1.317598
5906523,1.346975,-0.2818553,1.335448
5906526,1.346975,-0.2818553,1.335448
5906529,1.391564,-0.289391,1.379843
5906531,1.413332,-0.2980514,1.400256
5906534,1.413332,-0.2980514,1.400256
5906536,1.433404,-0.2900664,1.422303
5906539,1.433404,-0.2900664,1.422303
5906542,1.472596,-0.2887141,1.46273
5906544,1.492921,-0.2832403,1.484508
5906547,1.492921,-0.2832403,1.484508
5906549,1.535823,-0.2880355,1.527006
5906552,1.557837,-0.2960753,1.547628
5906554,1.557837,-0.2960753,1.547628
5906557,1.578924,-0.3064671,1.567105
5906561,1.623291,-0.3250574,1.60876
5906563,1.623291,-0.3250574,1.60876
5906566,1.644253,-0.3357179,1.627746
5906568,1.68644,-0.3286494,1.67234
5906571,1.68644,-0.3286494,1.67234
5906573,1.707315,-0.3304307,1.693157
5906576,1.707315,-0.3304307,1.693157
5906579,1.747757,-0.3058279,1.739226
5906581,1.767354,-0.3006659,1.760253
5906584,1.767354,-0.3006659,1.760253
5906586,1.782789,-0.2719625,1.780702
5906589,1.816285,-0.2349025,1.819837
5906591,1.816285,-0.2349025,1.819837
5906594,1.82949,-0.2093567,1.836536
5906597,1.85488,-0.166689,1.866764
5906599,1.85488,-0.166689,1.866764
5906603,1.867917,-0.1506579,1.881488
5906605,1.881384,-0.1384764,1.896201
5906608,1.881384,-0.1384764,1.896201
5906610,1.900325,-0.1170339,1.916936
5906613,1.900325,-0.1170339,1.916936
5906616,1.911722,-0.1119058,1.928743
5906618,1.925391,-0.1046783,1.942997
5906621,1.925391,-0.1046783,1.942997
5906623,1.934012,-0.1065312,1.951741
5906626,1.938661,-0.1027921,1.956648
5906628,1.938661,-0.1027921,1.956648
5906631,1.952342,0.1046783,1.970204
5906634,1.955547,0.1065312,1.973082
5906636,1.955547,0.1065312,1.973082
5906639,1.966823,0.1136409,1.984062
5906641,1.969806,0.1186941,1.986723
5906644,1.969806,0.1186941,1.986723
5906647,1.974272,0.1235407,1.990955
5906650,1.982976,0.1297215,1.999097
5906653,1.982976,0.1297215,1.999097
5906655,1.987216,0.132704,2.003107
5906658,1.987216,0.132704,2.003107
5906660,1.993509,0.1412742,2.008668
5906663,1.998216,0.14537,2.013048
5906665,1.998216,0.14537,2.013048
5906668,2.000858,0.1467098,2.015574
5906671,2.008766,0.1493534,2.023037
5906673,2.008766,0.1493534,2.023037
5906676,2.012756,0.1532334,2.026806
5906678,2.022747,0.1582588,2.036247
5906681,2.022747,0.1582588,2.036247
5906683,2.026903,0.1594904,2.040376
5906686,2.036055,0.1594904,2.049564
5906690,2.036055,0.1594904,2.049564
5906692,2.041047,0.1582588,2.054428
5906695,2.041047,0.1582588,2.054428
5906697,2.046314,0.1570175,2.059566
5906700,2.062794,0.1412742,2.076977
5906702,2.062794,0.1412742,2.076977
5906705,2.073393,0.1297215,2.08816
5906708,2.083281,0.1203313,2.098538
5906710,2.083281,0.1203313,2.098538
5906713,2.107658,0.08622923,2.124491
5906715,2.118402,0.07132626,2.135609
5906718,2.118402,0.07132626,2.135609
5906720,2.142928,0.04845664,2.160664
5906723,2.156675,0.05233916,2.174479
5906726,2.156675,0.05233916,2.174479
5906728,2.180681,-0.05934703,2.198468
5906732,2.180681,-0.05934703,2.198468
5906734,2.192406,-0.06852804,2.210011
5906737,2.213639,-0.08846933,2.230726
5906739,2.213639,-0.08846933,2.230726
5906742,2.222992,-0.1046783,2.239745
5906745,2.232042,-0.1186941,2.248379
5906747,2.232042,-0.1186941,2.248379
5906750,2.247247,-0.1480375,2.262437
5906752,2.253857,-0.1631294,2.268226
5906755,2.253857,-0.1631294,2.268226
5906758,2.265636,-0.1928145,2.278385
5906760,2.271072,-0.2065338,2.28302
5906763,2.271072,-0.2065338,2.28302
5906765,2.276839,-0.2193969,2.287987
5906768,2.276839,-0.2193969,2.287987
5906770,2.286189,-0.2486604,2.294905
5906774,2.291491,-0.2609472,2.299165
5906777,2.291491,-0.2609472,2.299165
5906779,2.303503,-0.2907402,2.308002
5906782,2.309528,-0.3032579,2.312576
5906784,2.309528,-0.3032579,2.312576
5906787,2.315029,-0.3083766,2.31748
5906789,2.328602,-0.315899,2.329778
5906792,2.328602,-0.315899,2.329778
5906795,2.335986,-0.3183671,2.336657
5906797,2.342847,-0.3214254,2.34293
5906800,2.342847,-0.3214254,2.34293
5906802,2.36248,-0.3250574,2.361735
5906805,2.36248,-0.3250574,2.361735
5906807,2.370751,-0.3268584,2.369595
5906810,2.396779,-0.3555328,2.391301
5906813,2.396779,-0.3555328,2.391301
5906816,2.407616,-0.3685048,2.400288
5906819,2.427935,-0.3896677,2.417351
5906821,2.427935,-0.3896677,2.417351
5906824,2.436546,-0.3990945,2.424547
5906826,2.451681,-0.4149588,2.437269
5906829,2.451681,-0.4149588,2.437269
5906832,2.458378,-0.4224361,2.442804
5906834,2.463707,-0.4329587,2.446806
5906837,2.463707,-0.4329587,2.446806
5906839,2.474172,-0.4515415,2.454633
5906842,2.474172,-0.4515415,2.454633
5906844,2.482385,-0.4524074,2.463151
5906847,2.497008,-0.4558544,2.477966
5906850,2.497008,-0.4558544,2.477966
5906852,2.502411,-0.4562834,2.483804
5906855,2.507568,-0.4579955,2.489314
5906857,2.507568,-0.4579955,2.489314
5906861,2.512948,-0.4656223,2.493949
5906863,2.516217,-0.4698059,2.496851
5906866,2.516217,-0.4698059,2.496851
5906869,2.518162,-0.4760123,2.497714
5906871,2.523131,-0.4861804,2.501003
5906874,2.523131,-0.4861804,2.501003
5906876,2.526155,-0.4897892,2.503193
5906879,2.526155,-0.4897892,2.503193
5906881,2.532887,-0.4973219,2.508426
5906884,2.535513,-0.4988932,2.510454
5906887,2.535513,-0.4988932,2.510454
5906889,2.541065,-0.5039662,2.514895
5906892,2.538213,-0.5173771,2.508895
5906894,2.538213,-0.5173771,2.508895
5906897,2.536516,-0.5293413,2.504522
5906899,2.534741,-0.5539077,2.496616
5906903,2.534741,-0.5539077,2.496616
5906906,2.534664,-0.5671728,2.493086
5906908,2.532037,-0.5794597,2.486876
5906911,2.532037,-0.5794597,2.486876
5906913,2.529716,-0.6019843,2.478203
5906916,2.529716,-0.6019843,2.478203
5906918,2.524605,-0.608772,2.470926
5906921,2.51855,-0.6214961,2.460766
5906924,2.51855,-0.6214961,2.460766
5906926,2.512792,-0.6274496,2.452958
5906929,2.508504,-0.6330382,2.446966
5906931,2.508504,-0.6330382,2.446966
5906934,2.497792,-0.6410245,2.433491
5906936,2.491829,-0.6431577,2.426645
5906939,2.491829,-0.6431577,2.426645
5906942,2.483725,-0.6449805,2.417675
5906945,2.472747,-0.6498165,2.404931
5906948,2.472747,-0.6498165,2.404931
5906950,2.466407,-0.6498165,2.398248
5906953,2.457821,-0.652521,2.388763
5906956,2.457821,-0.652521,2.388763
5906958,2.454235,-0.6510199,2.385401
5906961,2.454235,-0.6510199,2.385401
5906963,2.451681,-0.6513204,2.382774
5906966,2.448486,-0.6501176,2.379815
5906968,2.448486,-0.6501176,2.379815
5906971,2.447446,-0.6495153,2.378992
5906974,2.446326,-0.6486109,2.37817
5906976,2.446326,-0.6486109,2.37817
5906979,2.445926,-0.6486109,2.378005
5906981,2.445686,-0.646193,2.378499
5906984,2.445686,-0.646193,2.378499
5906987,2.445926,-0.6452838,2.379157
5906990,2.446406,-0.6449805,2.379815
5906993,2.446406,-0.6449805,2.379815
5906995,2.446806,-0.6480073,2.379897
5906998,2.446806,-0.6480073,2.379897
5907000,2.446326,-0.64589,2.380391
5907003,2.446167,-0.6437659,2.38113
5907005,2.446167,-0.6437659,2.38113
5907008,2.444966,-0.6431577,2.380391
5907011,2.444245,-0.6434618,2.379897
5907013,2.444245,-0.6434618,2.379897
5907016,2.441842,-0.6431577,2.378087
5907018,2.440399,-0.6428534,2.377017
5907021,2.440399,-0.6428534,2.377017
5907023,2.439436,-0.6437659,2.376193
5907026,2.437831,-0.6486109,2.373721
5907030,2.437831,-0.6486109,2.373721
5907032,2.437349,-0.6513204,2.372896
5907035,2.437349,-0.6513204,2.372896
5907037,2.418566,-0.6224399,2.362315
5907040,2.411596,-0.6119779,2.358417
5907042,2.411596,-0.6119779,2.358417
5907045,2.400369,-0.5957764,2.352018
5907048,2.383677,-0.5716401,2.342262
5907050,2.383677,-0.5716401,2.342262
5907053,2.373803,-0.5598809,2.335819
5907055,2.359081,-0.5424856,2.326163
5907058,2.359081,-0.5424856,2.326163
5907060,2.344768,-0.5278606,2.315875
5907063,2.339335,-0.5226451,2.312068
5907066,2.339335,-0.5226451,2.312068
5907068,2.333304,-0.5166202,2.307323
5907072,2.333304,-0.5166202,2.307323
5907074,2.324227,-0.5082192,2.300357
5907077,2.319169,-0.5035778,2.296013
5907079,2.319169,-0.5035778,2.296013
5907082,2.314945,-0.4996771,2.29243
5907085,2.306729,-0.4901886,2.286018
5907087,2.306729,-0.4901886,2.286018
5907090,2.303843,-0.4865827,2.28362
5907092,2.294564,-0.4768338,2.275979
5907095,2.294564,-0.4768338,2.275979
5907097,2.290978,-0.4739525,2.273139
5907100,2.279588,-0.463094,2.263562
5907103,2.279588,-0.463094,2.263562
5907105,2.275377,-0.4592754,2.2601
5907108,2.275377,-0.4592754,2.2601
5907110,2.261572,-0.4463111,2.248292
5907113,2.25646,-0.4405747,2.243848
5907116,2.25646,-0.4405747,2.243848
5907119,2.246899,-0.4302385,2.235984
5907122,2.238958,-0.4210443,2.229497
5907124,2.238958,-0.4210443,2.229497
5907127,2.228971,-0.4092611,2.221318
5907129,2.214081,-0.3911712,2.209214
5907132,2.214081,-0.3911712,2.209214
5907134,2.207973,-0.3901695,2.203004
5907137,2.198735,-0.3891652,2.193388
5907140,2.198735,-0.3891652,2.193388
5907142,2.194459,-0.3881583,2.18919
5907145,2.194459,-0.3881583,2.18919
5907147,2.187938,-0.386643,2.182385
5907150,2.185074,-0.3851218,2.179603
5907152,2.185074,-0.3851218,2.179603
5907155,2.182564,-0.3835945,2.177267
5907159,2.180142,-0.3810355,2.175019
5907161,2.180142,-0.3810355,2.175019
5907164,2.179962,-0.3800071,2.174929
5907166,2.182654,-0.3810355,2.176728
5907169,2.182654,-0.3810355,2.176728
5907172,2.183192,-0.3815487,2.177177
5907174,2.188206,-0.3841043,2.181309
5907177,2.188206,-0.3841043,2.181309
5907179,2.194815,-0.386643,2.187043
5907182,2.194815,-0.386643,2.187043
5907184,2.1974,-0.3789758,2.190531
5907187,2.200515,-0.3674413,2.19535
5907190,2.200515,-0.3674413,2.19535
5907192,2.203448,-0.3663747,2.198201
5907195,2.207442,-0.364769,2.202027
5907197,2.207442,-0.364769,2.202027
5907201,2.213551,-0.3642322,2.207796
5907203,2.218232,-0.3642322,2.212313
5907206,2.218232,-0.3642322,2.212313
5907209,2.221935,-0.3636945,2.215937
5907211,2.233006,-0.3722032,2.22528
5907214,2.233006,-0.3722032,2.22528
5907216,2.241143,-0.3794918,2.232129
5907219,2.241143,-0.3794918,2.232129
5907221,2.252467,-0.3881583,2.241492
5907224,2.259841,-0.3971285,2.247422
5907227,2.259841,-0.3971285,2.247422
5907229,2.265722,-0.403483,2.252032
5907232,2.277268,-0.4154301,2.261312
5907234,2.277268,-0.4154301,2.261312
5907237,2.282676,-0.4205793,2.265809
5907239,2.282676,-0.4205793,2.265809
5907243,2.282676,-0.4205793,2.265809
5907246,2.282676,-0.4205793,2.265809
5907248,2.289868,-0.4284154,2.27133
5907251,2.289868,-0.4284154,2.27133
5907253,2.295502,-0.4347627,2.275721
5907256,2.295502,-0.4347627,2.275721
5907258,2.304692,-0.4427898,2.283191
5907261,2.308341,-0.4449939,2.286275
5907264,2.308341,-0.4449939,2.286275
5907266,2.311137,-0.4467493,2.288842
5907269,2.31579,-0.4515415,2.292259
5907271,2.31579,-0.4515415,2.292259
5907274,2.31748,-0.453703,2.293369
5907276,2.318324,-0.453703,2.294052
5907279,2.318324,-0.453703,2.294052
5907282,2.320012,-0.4601268,2.294137
5907284,2.320856,-0.464781,2.293881
5907288,2.320856,-0.464781,2.293881
5907290,2.321362,-0.4731261,2.292259
5907293,2.321277,-0.4768338,2.291235
5907295,2.321277,-0.4768338,2.291235
5907298,2.320181,-0.4817329,2.288756
5907301,2.320181,-0.4817329,2.288756
5907303,2.319337,-0.4833549,2.287387
5907306,2.318578,-0.4845679,2.286275
5907308,2.318578,-0.4845679,2.286275
5907311,2.313084,-0.4805128,2.281304
5907313,2.310968,-0.4792896,2.279416
5907316,2.310968,-0.4792896,2.279416
5907319,2.307747,-0.4764233,2.276667
5907321,2.302993,-0.4731261,2.272623
5907324,2.302993,-0.4731261,2.272623
5907326,2.296781,-0.4545648,2.264599
5907330,2.287473,-0.4480613,2.261745
5907332,2.287473,-0.4480613,2.261745
5907335,2.283705,-0.4436728,2.258628
5907338,2.283705,-0.4436728,2.258628
5907340,2.278214,-0.4379019,2.254291
5907343,2.276924,-0.4256662,2.255246
5907345,2.276924,-0.4256662,2.255246
5907348,2.275979,-0.416371,2.256027
5907350,2.275291,-0.3936644,2.259321
5907353,2.275291,-0.3936644,2.259321
5907356,2.275119,-0.3851218,2.260533
5907358,2.275291,-0.3631561,2.264426
5907361,2.275291,-0.3631561,2.264426
5907363,2.275377,-0.3544303,2.265809
5907366,2.275635,-0.3505445,2.266759
5907369,2.275893,-0.3471792,2.267536
5907372,2.276151,-0.343781,2.268226
5907375,2.276151,-0.343781,2.268226
5907377,2.273914,-0.3499859,2.265118
5907380,2.270555,-0.3566318,2.260793
5907382,2.270555,-0.3566318,2.260793
5907385,2.268312,-0.364769,2.257154
5907388,2.265031,-0.3763854,2.252032
5907390,2.265031,-0.3763854,2.252032
5907393,2.263994,-0.3846134,2.249424
5907395,2.262264,-0.3966355,2.245592
5907398,2.262264,-0.3966355,2.245592
5907400,2.260533,-0.3916712,2.244895
5907403,2.259148,-0.3881583,2.244197
5907406,2.259148,-0.3881583,2.244197
5907408,2.256374,-0.3774237,2.243325
5907411,2.256374,-0.3774237,2.243325
5907414,2.254985,-0.3722032,2.242976
5907417,2.25264,-0.3615361,2.242365
5907419,2.25264,-0.3615361,2.242365
5907422,2.251511,-0.3560827,2.242103
5907425,2.251337,-0.3538778,2.242627
5907427,2.251337,-0.3538778,2.242627
5907430,2.251945,-0.354982,2.243063
5907432,2.250554,-0.3516591,2.242452
5907435,2.250554,-0.3516591,2.242452
5907437,2.248989,-0.3477423,2.241579
5907440,2.247857,-0.3454843,2.240793
5907443,2.247857,-0.3454843,2.240793
5907445,2.244982,-0.3380413,2.239133
5907448,2.244982,-0.3380413,2.239133
5907450,2.248641,-0.3488659,2.241143
5907453,2.251598,-0.358274,2.242976
5907456,2.251598,-0.358274,2.242976
5907459,2.258368,-0.3758652,2.246812
5907462,2.261832,-0.3841043,2.248814
5907464,2.261832,-0.3841043,2.248814
5907467,2.26719,-0.3971285,2.252032
5907469,2.269261,-0.4025119,2.253249
5907472,2.269261,-0.4025119,2.253249
5907474,2.271158,-0.4068635,2.254291
5907477,2.277956,-0.3946573,2.263216
5907480,2.277956,-0.3946573,2.263216
5907482,2.280618,-0.3901695,2.266586
5907485,2.280618,-0.3901695,2.266586
5907487,2.286532,-0.3711503,2.275549
5907490,2.287987,-0.3620769,2.278385
5907492,2.287987,-0.3620769,2.278385
5907495,2.29038,-0.3494264,2.282676
5907499,2.291491,-0.3449174,2.284391
5907501,2.291491,-0.3449174,2.284391
5907504,2.291662,-0.339197,2.285333
5907506,2.29021,-0.3310224,2.285247
5907509,2.29021,-0.3310224,2.285247
5907511,2.289184,-0.3274564,2.284476
5907514,2.285162,-0.3109043,2.282762
5907517,2.285162,-0.3109043,2.282762
5907519,2.282762,-0.3006659,2.281647
5907522,2.282762,-0.3006659,2.281647
5907524,2.279416,-0.2873554,2.280103
5907527,2.278471,-0.2832403,2.279588
5907529,2.278471,-0.2832403,2.279588
5907532,2.277612,-0.2790645,2.279158
5907535,2.274344,-0.2676108,2.277182
5907537,2.274344,-0.2676108,2.277182
5907540,2.273139,-0.2639296,2.276495
5907543,2.270296,-0.2579304,2.274344
5907546,2.270296,-0.2579304,2.274344
5907548,2.2665,-0.2478722,2.271589
5907551,2.264253,-0.2430897,2.269865
5907554,2.264253,-0.2430897,2.269865
5907556,2.262437,-0.2382111,2.268657
5907559,2.260273,-0.2306999,2.267018
5907561,2.258541,-0.2238118,2.265981
5907564,2.254638,-0.2176059,2.262784
5907566,2.254638,-0.2176059,2.262784
5907569,2.25264,-0.2148914,2.260966
5907572,2.250989,-0.2148914,2.259408
5907574,2.250989,-0.2148914,2.259408
5907577,2.246899,-0.2055842,2.25594
5907579,2.245418,-0.2036718,2.254638
5907582,2.245418,-0.2036718,2.254638
5907586,2.241317,-0.1978235,2.251163
5907588,2.240094,-0.1958353,2.25012
5907591,2.240094,-0.1958353,2.25012
5907593,2.238346,-0.191797,2.248902
5907596,2.238346,-0.191797,2.248902
5907598,2.236159,-0.183454,2.247247
5907601,2.234233,-0.183454,2.245418
5907604,2.234233,-0.183454,2.245418
5907606,2.232743,-0.1813082,2.24411
5907609,2.229585,-0.1791368,2.241143
5907611,2.229585,-0.1791368,2.241143
5907614,2.228004,-0.1780411,2.23957
5907616,2.226071,-0.1758294,2.237559
5907619,2.226071,-0.1758294,2.237559
5907622,2.22528,-0.1758294,2.237034
5907624,2.22396,-0.1758294,2.235634
5907628,2.22396,-0.1758294,2.235634
5907630,2.223168,-0.1769387,2.234758
5907633,2.222199,-0.1769387,2.233795
5907635,2.222199,-0.1769387,2.233795
5907638,2.222023,-0.174713,2.233444
5907641,2.222023,-0.174713,2.233444
5907643,2.221671,-0.1780411,2.232831
5907646,2.221494,-0.1823843,2.232392
5907648,2.221494,-0.1823843,2.232392
5907651,2.222111,-0.1855749,2.232568
5907653,2.223168,-0.1928145,2.233006
5907656,2.223168,-0.1928145,2.233006
5907659,2.224312,-0.1978235,2.233707
5907661,2.226247,-0.2055842,2.234846
5907664,2.226247,-0.2055842,2.234846
5907666,2.227038,-0.2130625,2.235109
5907670,2.227653,-0.2158,2.235371
5907672,2.22818,-0.2193969,2.235459
5907675,2.229146,-0.2272819,2.235634
5907678,2.229146,-0.2272819,2.235634
5907680,2.229936,-0.23239,2.235984
5907683,2.23134,-0.2446942,2.235984
5907685,2.23134,-0.2446942,2.235984
5907688,2.231866,-0.25101,2.235809
5907690,2.233357,-0.2639296,2.235897
5907693,2.233357,-0.2639296,2.235897
5907696,2.234145,-0.2697954,2.235897
5907698,2.235109,-0.2832403,2.235284
5907701,2.235109,-0.2832403,2.235284
5907703,2.235459,-0.289391,2.234846
5907706,2.235809,-0.2954137,2.234496
5907708,2.235809,-0.2954137,2.234496
5907712,2.236859,-0.302612,2.23432
5907715,2.236859,-0.302612,2.23432
5907717,2.237034,-0.3058279,2.234233
5907720,2.236684,-0.311533,2.233006
5907722,2.236684,-0.311533,2.233006
5907725,2.236947,-0.3171355,2.232568
5907727,2.237297,-0.3208161,2.232392
5907730,2.237297,-0.3208161,2.232392
5907733,2.237821,-0.3262592,2.232305
5907735,2.238346,-0.3274564,2.23248
5907738,2.238346,-0.3274564,2.23248
5907740,2.238871,-0.329838,2.232743
5907743,2.238958,-0.3304307,2.232743
5907745,2.238958,-0.3304307,2.232743
5907748,2.239133,-0.3310224,2.232743
5907751,2.239133,-0.3310224,2.232743
5907753,2.238259,-0.3262592,2.232656
5907757,2.237996,-0.3250574,2.232656
5907759,2.237996,-0.3250574,2.232656
5907762,2.237821,-0.3208161,2.233181
5907764,2.236772,-0.3121605,2.233269
5907767,2.236772,-0.3121605,2.233269
5907770,2.235984,-0.3083766,2.232919
5907772,2.235459,-0.3064671,2.232831
5907775,2.235459,-0.3064671,2.232831
5907777,2.234058,-0.2993615,2.232217
5907780,2.232042,-0.2920831,2.231252
5907783,2.232042,-0.2920831,2.231252
5907785,2.230638,-0.289391,2.230375
5907788,2.230638,-0.289391,2.230375
5907790,2.229673,-0.2853053,2.229585
5907793,2.226686,-0.2733977,2.22818
5907795,2.226686,-0.2733977,2.22818
5907799,2.225719,-0.2697954,2.227829
5907802,2.22352,-0.2609472,2.226423
5907804,2.22352,-0.2609472,2.226423
5907807,2.221847,-0.254109,2.225631
5907809,2.217791,-0.2406627,2.223256
5907812,2.217791,-0.2406627,2.223256
5907814,2.216555,-0.235734,2.222463
5907817,2.214523,-0.2272819,2.221318
5907820,2.214523,-0.2272819,2.221318
5907822,2.211605,-0.2148914,2.219644
5907825,2.211605,-0.2148914,2.219644
5907827,2.210543,-0.20842,2.219026
5907830,2.209569,-0.2036718,2.218585
5907832,2.209569,-0.2036718,2.218585
5907835,2.208771,-0.1988102,2.218232
5907838,2.207264,-0.1897456,2.217703
5907841,2.207264,-0.1897456,2.217703
5907844,2.206998,-0.1845175,2.217703
5907846,2.206909,-0.1791368,2.217967
5907849,2.206909,-0.1791368,2.217967
5907851,2.206289,-0.1724585,2.217967
5907854,2.206023,-0.1701742,2.217967
5907857,2.206023,-0.1701742,2.217967
5907859,2.205934,-0.1619255,2.218497
5907862,2.205934,-0.1619255,2.218497
5907864,2.205845,-0.1570175,2.218762
5907867,2.205046,-0.1557664,2.21832
5907869,2.205046,-0.1557664,2.21832
5907872,2.204159,-0.1480375,2.217879
5907875,2.203981,-0.14537,2.217967
5907877,2.203981,-0.14537,2.217967
5907880,2.203804,-0.14537,2.217879
5907883,2.20407,-0.1398823,2.218409
5907886,2.20407,-0.1398823,2.218409
5907888,2.204336,-0.1384764,2.218585
5907891,2.204247,-0.1384764,2.218497
5907894,2.204247,-0.1384764,2.218497
5907896,2.203981,-0.1384764,2.21832
5907899,2.203981,-0.1384764,2.21832
5907901,2.203626,-0.1384764,2.218056
5907904,2.20327,-0.1356209,2.217615
5907906,2.20327,-0.1356209,2.217615
5907909,2.20256,-0.1356209,2.216997
5907912,2.201671,-0.1356209,2.216114
5907914,2.201671,-0.1356209,2.216114
5907917,2.202027,-0.1384764,2.21629
5907919,2.202471,-0.1370561,2.216555
5907922,2.202471,-0.1370561,2.216555
5907924,2.202738,-0.1426525,2.216643
5907928,2.202738,-0.1426525,2.216732
5907931,2.202738,-0.1426525,2.216732
5907933,2.20256,-0.1412742,2.216555
5907936,2.20256,-0.1412742,2.216555
5907938,2.20256,-0.1398823,2.216467
5907941,2.202471,-0.1384764,2.216555
5907943,2.202471,-0.1384764,2.216555
5907946,2.201493,-0.1370561,2.215584
5907949,2.201138,-0.1370561,2.215318
5907951,2.201138,-0.1370561,2.215318
5907954,2.199181,-0.1412742,2.213286
5907956,2.197756,-0.1440177,2.211516
5907959,2.197756,-0.1440177,2.211516
5907961,2.196509,-0.14537,2.2101
5907964,2.191246,-0.1480375,2.20478
5907968,2.191246,-0.1480375,2.20478
5907970,2.187849,-0.1480375,2.201493
5907973,2.185163,-0.1493534,2.198647
5907975,2.185163,-0.1493534,2.198647
5907978,2.175739,-0.1493534,2.18919
5907980,2.175739,-0.1493534,2.18919
5907983,2.172227,-0.1493534,2.185701
5907986,2.165098,-0.1506579,2.178705
5907988,2.165098,-0.1506579,2.178705
5907991,2.162656,-0.1506579,2.176098
5907993,2.15613,-0.1493534,2.169793
5907996,2.15613,-0.1493534,2.169793
5907999,2.15395,-0.1493534,2.167537
5908001,2.151314,-0.1480375,2.165008
5908004,2.151314,-0.1480375,2.165008
5908006,2.147398,-0.14537,2.161389
5908009,2.144571,-0.1440177,2.158489
5908012,2.144571,-0.1440177,2.158489
5908015,2.138905,-0.1426525,2.152678
5908018,2.138905,-0.1426525,2.152678
5908020,2.13625,-0.14537,2.15004
5908023,2.134234,-0.1440177,2.148036
5908025,2.134234,-0.1440177,2.148036
5908028,2.129,-0.14537,2.142745
5908030,2.127253,-0.1467098,2.140918
5908033,2.127253,-0.1467098,2.140918
5908036,2.121541,-0.1467098,2.134967
5908038,2.11951,-0.1467098,2.132949
5908041,2.11951,-0.1467098,2.132949
5908043,2.116276,-0.1480375,2.129644
5908046,2.111647,-0.1493534,2.124952
5908048,2.111647,-0.1493534,2.124952
5908051,2.107936,-0.1493534,2.121449
5908055,2.107936,-0.1493534,2.121449
5908057,2.101148,-0.1467098,2.114796
5908060,2.097978,-0.1480375,2.11174
5908062,2.097978,-0.1480375,2.11174
5908065,2.095551,-0.1467098,2.109329
5908067,2.089378,-0.1480375,2.102823
5908070,2.089378,-0.1480375,2.102823
5908073,2.087129,-0.1493534,2.100589
5908075,2.083093,-0.1532334,2.096205
5908078,2.083093,-0.1532334,2.096205
5908080,2.081683,-0.1557664,2.094804
5908083,2.079802,-0.1557664,2.092841
5908085,2.079802,-0.1557664,2.092841
5908088,2.076977,-0.1557664,2.089847
5908091,2.076977,-0.1557664,2.089847
5908093,2.07311,-0.1532334,2.086097
5908097,2.069992,-0.1519511,2.082999
5908099,2.069992,-0.1519511,2.082999
5908102,2.064027,-0.1493534,2.07726
5908104,2.061275,-0.1480375,2.074526
5908107,2.061275,-0.1480375,2.074526
5908110,2.060136,-0.1467098,2.073488
5908112,2.058615,-0.1440177,2.071788
5908115,2.058615,-0.1440177,2.071788
5908117,2.057854,-0.1426525,2.071316
5908120,2.057474,-0.1412742,2.070748
5908122,2.057474,-0.1412742,2.070748
5908125,2.056808,-0.1398823,2.070181
5908128,2.056808,-0.1398823,2.070181
5908130,2.056523,-0.1384764,2.069898
5908133,2.055856,-0.1412742,2.069141
5908135,2.055856,-0.1412742,2.069141
5908139,2.05519,-0.1412742,2.068479
5908141,2.055285,-0.1398823,2.068668
5908144,2.055285,-0.1398823,2.068668
5908147,2.055475,-0.1384764,2.069046
5908149,2.058045,-0.1370561,2.071599
5908152,2.058045,-0.1370561,2.071599
5908154,2.060041,-0.1384764,2.073582
5908157,2.06156,-0.1370561,2.075092
5908159,2.06156,-0.1370561,2.075092
5908162,2.06668,-0.1426525,2.079896
5908165,2.06668,-0.1426525,2.079896
5908167,2.070937,-0.14537,2.083938
5908170,2.074242,-0.1480375,2.087129
5908172,2.074242,-0.1480375,2.087129
5908175,2.081213,-0.1532334,2.09387
5908177,2.084595,-0.1545051,2.096952
5908180,2.084595,-0.1545051,2.096952
5908184,2.087317,-0.1570175,2.099657
5908186,2.091251,-0.1594904,2.103382
5908189,2.091251,-0.1594904,2.103382
5908191,2.092935,-0.1607126,2.105335
5908194,2.094337,-0.1619255,2.106636
5908197,2.094337,-0.1619255,2.106636
5908199,2.096765,-0.1631294,2.10905
5908202,2.096765,-0.1631294,2.10905
5908204,2.097885,-0.1619255,2.110256
5908207,2.098911,-0.1631294,2.111184
5908209,2.098911,-0.1631294,2.111184
5908212,2.098911,-0.1631294,2.111184
5908215,2.098911,-0.1631294,2.111184
5908217,2.098911,-0.1631294,2.111184
5908220,2.100216,-0.1619255,2.112759
5908222,2.101707,-0.1594904,2.11424
5908226,2.101707,-0.1594904,2.11424
5908228,2.102917,-0.1582588,2.115536
5908231,2.103754,-0.1557664,2.116461
5908234,2.103754,-0.1557664,2.116461
5908236,2.1058,-0.1506579,2.118864
5908239,2.1058,-0.1506579,2.118864
5908241,2.106729,-0.1480375,2.120064
5908244,2.107472,-0.14537,2.120987
5908246,2.107472,-0.14537,2.120987
5908249,2.108679,-0.1370561,2.122555
5908252,2.108865,-0.1341704,2.123109
5908254,2.108865,-0.1341704,2.123109
5908257,2.109143,-0.1297215,2.123477
5908259,2.111276,-0.1251145,2.12578
5908262,2.111276,-0.1251145,2.12578
5908264,2.115166,-0.1186941,2.130103
5908268,2.117016,-0.1153499,2.132123
5908271,2.117016,-0.1153499,2.132123
5908273,2.118402,-0.1119058,2.133592
5908276,2.118402,-0.1119058,2.133592
5908278,2.121356,-0.1083524,2.136617
5908281,2.122371,-0.1101434,2.137624
5908283,2.122371,-0.1101434,2.137624
5908286,2.122924,-0.1065312,2.138448
5908289,2.123293,-0.1046783,2.138722
5908291,2.123293,-0.1046783,2.138722
5908294,2.125228,-0.09691329,2.1411
5908296,2.125964,-0.09278741,2.142014
5908299,2.125964,-0.09278741,2.142014
5908301,2.125872,-0.08846933,2.142197
5908304,2.125688,-0.08622923,2.142106
5908307,2.125688,-0.08622923,2.142106
5908310,2.125228,-0.08392937,2.141649
5908313,2.124307,-0.08392937,2.140826
5908315,2.124307,-0.08392937,2.140826
5908318,2.123293,-0.07912937,2.13982
5908320,2.123293,-0.07912937,2.13982
5908323,2.12191,-0.08392937,2.138448
5908326,2.120711,-0.07912937,2.137349
5908328,2.120711,-0.07912937,2.137349
5908331,2.119603,-0.07661668,2.13625
5908333,2.117478,-0.07912937,2.134326
5908336,2.117478,-0.07912937,2.134326
5908338,2.116554,-0.07912937,2.133133
5908341,2.113685,-0.07912937,2.130563
5908344,2.113685,-0.07912937,2.130563
5908346,2.112203,-0.07912937,2.129
5908349,2.109885,-0.07661668,2.126701
5908352,2.109885,-0.07661668,2.126701
5908355,2.106729,-0.07912937,2.123477
5908357,2.106729,-0.07912937,2.123477
5908360,2.1058,-0.07132626,2.122832
5908363,2.104405,-0.07132626,2.121633
5908365,2.104405,-0.07132626,2.121633
5908368,2.101893,-0.06255726,2.119233
5908370,2.09975,-0.06255726,2.117201
5908373,2.09975,-0.06255726,2.117201
5908375,2.095271,-0.06255726,2.112759
5908378,2.092748,-0.06255726,2.110163
5908381,2.092748,-0.06255726,2.110163
5908383,2.090783,-0.05934703,2.108308
5908386,2.084783,-0.0656106,2.102265
5908388,2.084783,-0.0656106,2.102265
5908391,2.078861,-0.0656106,2.096205
5908393,2.078861,-0.0656106,2.096205
5908397,2.075846,-0.06852804,2.093215
5908400,2.071599,-0.06852804,2.088722
5908402,2.071599,-0.06852804,2.088722
5908405,2.065259,-0.06852804,2.082247
5908407,2.061086,-0.07132626,2.078107
5908410,2.061086,-0.07132626,2.078107
5908413,2.05519,-0.07401875,2.07226
5908415,2.051854,-0.07912937,2.068479
5908418,2.051854,-0.07912937,2.068479
5908420,2.046697,-0.08156469,2.063268
5908423,2.044305,-0.08392937,2.060706
5908425,2.044305,-0.08392937,2.060706
5908428,2.042102,-0.07912937,2.058615
5908431,2.042102,-0.07912937,2.058615
5908433,2.038841,-0.08156469,2.055285
5908436,2.037497,-0.08156469,2.054047
5908439,2.037497,-0.08156469,2.054047
5908442,2.037497,-0.08156469,2.053952
5908444,2.038457,-0.08392937,2.054904
5908447,2.038457,-0.08392937,2.054904
5908450,2.039225,-0.08392937,2.055571
5908452,2.041335,-0.09487279,2.056998
5908455,2.041335,-0.09487279,2.056998
5908457,2.043347,-0.09891172,2.058995
5908460,2.044113,-0.09891172,2.059946
5908462,2.044113,-0.09891172,2.059946
5908465,2.044975,-0.09891172,2.060706
5908468,2.044975,-0.09891172,2.060706
5908470,2.045453,-0.09691329,2.060991
5908473,2.045645,-0.09691329,2.061181
5908475,2.045645,-0.09691329,2.061181
5908478,2.046506,-0.09891172,2.062225
5908481,2.046697,-0.09691329,2.062414
5908484,2.046697,-0.09691329,2.062414
5908487,2.049659,-0.09487279,2.065449
5908489,2.050614,-0.09278741,2.06668
5908492,2.050614,-0.09278741,2.06668
5908494,2.052331,-0.09278741,2.068384
5908497,2.054523,-0.09278741,2.070465
5908499,2.054523,-0.09278741,2.070465
5908502,2.056047,-0.09691329,2.072071
5908505,2.056047,-0.09691329,2.072071
5908507,2.05871,-0.1008706,2.074337
5908510,2.059661,-0.09891172,2.075186
5908512,2.059661,-0.09891172,2.075186
5908515,2.06232,-0.1027921,2.077825
5908517,2.063838,-0.1065312,2.079426
5908520,2.063838,-0.1065312,2.079426
5908524,2.06507,-0.1065312,2.080555
5908526,2.068573,-0.1083524,2.083938
5908529,2.068573,-0.1083524,2.083938
5908531,2.069709,-0.1083524,2.085253
5908534,2.071788,-0.1065312,2.087129
5908536,2.071788,-0.1065312,2.087129
5908539,2.074714,-0.1101434,2.08994
5908542,2.074714,-0.1101434,2.08994
5908544,2.076317,-0.1101434,2.091625
5908547,2.078672,-0.1101434,2.093963
5908549,2.078672,-0.1101434,2.093963
5908552,2.080555,-0.1136409,2.095645
5908554,2.083563,-0.1235407,2.098165
5908557,2.083563,-0.1235407,2.098165
5908560,2.085534,-0.1251145,2.099843
5908562,2.086941,-0.1297215,2.101241
5908566,2.086941,-0.1297215,2.101241
5908568,2.089378,-0.1370561,2.10301
5908571,2.090127,-0.1412742,2.103847
5908573,2.090127,-0.1412742,2.103847
5908576,2.092186,-0.1412742,2.105614
5908579,2.092186,-0.1412742,2.105614
5908581,2.095178,-0.1426525,2.108586
5908584,2.094804,-0.14537,2.108122
5908586,2.094804,-0.14537,2.108122
5908589,2.094804,-0.1480375,2.107751
5908591,2.094243,-0.1467098,2.107379
5908594,2.094243,-0.1467098,2.107379
5908597,2.093776,-0.1467098,2.107193
5908599,2.093589,-0.1426525,2.1071
5908602,2.093589,-0.1426525,2.1071
5908604,2.093683,-0.1412742,2.107193
5908608,2.094057,-0.1356209,2.107936
5908611,2.094057,-0.1356209,2.107936
5908613,2.09443,-0.1356209,2.108493
5908616,2.095271,-0.1297215,2.1097
5908618,2.095271,-0.1297215,2.1097
5908621,2.096392,-0.1219466,2.111276
5908623,2.096392,-0.1219466,2.111276
5908626,2.096672,-0.1186941,2.111647
5908629,2.096765,-0.1170339,2.112018
5908631,2.096765,-0.1170339,2.112018
5908634,2.097419,-0.1083524,2.113222
5908636,2.097978,-0.1027921,2.114055
5908639,2.097978,-0.1027921,2.114055
5908641,2.098538,-0.09691329,2.114981
5908644,2.098631,-0.09278741,2.115166
5908647,2.098631,-0.09278741,2.115166
5908649,2.098445,-0.08846933,2.115166
5908653,2.098072,-0.08392937,2.114981
5908655,2.098072,-0.08392937,2.114981
5908658,2.097978,-0.08156469,2.114703
5908660,2.097978,-0.08156469,2.114703
5908663,2.097978,-0.07912937,2.115073
5908666,2.097792,-0.07912937,2.114796
5908668,2.097792,-0.07912937,2.114796
5908671,2.097419,-0.08156469,2.114518
5908673,2.097512,-0.08156469,2.114611
5908676,2.097512,-0.08156469,2.114611
5908678,2.097325,-0.07401875,2.114611
5908681,2.097045,-0.07401875,2.114611
5908684,2.097045,-0.07401875,2.114611
5908686,2.096765,-0.07401875,2.114148
5908689,2.097792,-0.07132626,2.115259
5908691,2.097792,-0.07132626,2.115259
5908695,2.098631,-0.07132626,2.116091
5908697,2.098631,-0.07132626,2.116091
5908700,2.100123,-0.06852804,2.117755
5908703,2.100961,-0.06852804,2.118402
5908705,2.100961,-0.06852804,2.118402
5908708,2.101613,-0.06852804,2.119049
5908710,2.102917,-0.07132626,2.120157
5908713,2.102917,-0.07132626,2.120157
5908715,2.103382,-0.07132626,2.120618
5908718,2.104219,-0.07132626,2.121633
5908721,2.104219,-0.07132626,2.121633
5908723,2.104498,-0.06852804,2.12191
5908726,2.103103,-0.0656106,2.120803
5908728,2.103103,-0.0656106,2.120803
5908731,2.102638,-0.0656106,2.120341
5908733,2.102638,-0.0656106,2.120341
5908737,2.100496,-0.0656106,2.118217
5908740,2.09975,-0.0656106,2.117386
5908742,2.09975,-0.0656106,2.117386
5908745,2.099657,-0.0656106,2.117386
5908747,2.099563,-0.06255726,2.117201
5908750,2.099563,-0.06255726,2.117201
5908752,2.097978,-0.0656106,2.115629
5908755,2.094337,-0.0656106,2.111925
5908758,2.094337,-0.0656106,2.111925
5908760,2.092467,-0.0656106,2.109885
5908763,2.089472,-0.0656106,2.107008
5908765,2.089472,-0.0656106,2.107008
5908768,2.088441,-0.06852804,2.105986
5908770,2.088441,-0.06852804,2.105986
5908773,2.087692,-0.0656106,2.105242
5908776,2.08422,-0.07401875,2.10152
5908779,2.08422,-0.07401875,2.10152
5908782,2.082999,-0.07661668,2.100309
5908784,2.079896,-0.08156469,2.097139
5908787,2.079896,-0.08156469,2.097139
5908789,2.078861,-0.07912937,2.096112
5908792,2.076129,-0.08156469,2.093028
5908795,2.076129,-0.08156469,2.093028
5908797,2.074997,-0.08392937,2.091906
5908800,2.074997,-0.08846933,2.091719
5908802,2.074997,-0.08846933,2.091719
5908805,2.074714,-0.09691329,2.091251
5908807,2.074714,-0.09691329,2.091251
5908810,2.074337,-0.1008706,2.090502
5908813,2.073582,-0.1046783,2.089753
5908815,2.073582,-0.1046783,2.089753
5908818,2.072921,-0.1065312,2.089004
5908820,2.072071,-0.1065312,2.088067
5908824,2.072071,-0.1065312,2.088067
5908827,2.07226,-0.1101434,2.087973
5908829,2.072166,-0.1136409,2.087785
5908832,2.072166,-0.1136409,2.087785
5908834,2.072732,-0.1186941,2.087973
5908837,2.073299,-0.1219466,2.08816
5908839,2.073299,-0.1219466,2.08816
5908842,2.071599,-0.1219466,2.08666
5908845,2.071599,-0.1219466,2.08666
5908847,2.071032,-0.1186941,2.086003
5908850,2.069992,-0.1203313,2.084971
5908852,2.069992,-0.1203313,2.084971
5908855,2.068573,-0.1235407,2.083563
5908857,2.068384,-0.1219466,2.083187
5908860,2.068384,-0.1219466,2.083187
5908864,2.0681,-0.1203313,2.082999
5908866,2.068857,-0.1235407,2.083563
5908869,2.068857,-0.1235407,2.083563
5908871,2.069898,-0.1282043,2.084314
5908874,2.070276,-0.132704,2.084408
5908876,2.070276,-0.132704,2.084408
5908879,2.070559,-0.1341704,2.084595
5908882,2.070559,-0.1341704,2.084595
5908884,2.071221,-0.1356209,2.085346
5908887,2.071599,-0.1356209,2.085534
5908889,2.071599,-0.1356209,2.085534
5908892,2.072921,-0.1384764,2.086566
5908894,2.073488,-0.1398823,2.087223
5908897,2.073488,-0.1398823,2.087223
5908900,2.074997,-0.1426525,2.088535
5908902,2.075657,-0.1426525,2.089285
5908905,2.075657,-0.1426525,2.089285
5908908,2.076411,-0.1440177,2.089753
5908911,2.076506,-0.1426525,2.090127
5908913,2.076506,-0.1426525,2.090127
5908916,2.077071,-0.1412742,2.090783
5908919,2.077071,-0.1412742,2.090783
5908921,2.077825,-0.1398823,2.091719
5908924,2.07839,-0.1384764,2.092186
5908926,2.07839,-0.1384764,2.092186
5908929,2.078767,-0.1398823,2.092654
5908931,2.079237,-0.1412742,2.092935
5908934,2.079237,-0.1412742,2.092935
5908937,2.080272,-0.1384764,2.09415
5908939,2.080743,-0.1370561,2.094617
5908942,2.080743,-0.1370561,2.094617
5908944,2.081401,-0.1356209,2.095365
5908947,2.081213,-0.1341704,2.095551
5908950,2.081213,-0.1341704,2.095551
5908953,2.081213,-0.1312212,2.095645
5908956,2.081307,-0.1266688,2.096018
5908958,2.081307,-0.1266688,2.096018
5908961,2.081307,-0.1235407,2.096112
5908963,2.081307,-0.1235407,2.096112
5908966,2.080837,-0.1186941,2.095925
5908968,2.080461,-0.1186941,2.095738
5908971,2.080461,-0.1186941,2.095738
5908974,2.080178,-0.1136409,2.095458
5908976,2.079614,-0.1101434,2.095271
5908979,2.079614,-0.1101434,2.095271
5908981,2.079426,-0.1065312,2.095178
5908984,2.078767,-0.1046783,2.094711
5908986,2.078767,-0.1046783,2.094711
5908989,2.078202,-0.09691329,2.094337
5908993,2.077448,-0.08622923,2.09415
5908995,2.077448,-0.08622923,2.09415
5908998,2.076788,-0.06852804,2.094057
5909000,2.076788,-0.06852804,2.094057
5909003,2.075563,-0.06255726,2.093028
5909005,2.073676,-0.05595291,2.091438
5909008,2.073676,-0.05595291,2.091438
5909011,2.072543,-0.05233916,2.090315
5909013,2.069519,-0.04423466,2.08741
5909016,2.069519,-0.04423466,2.08741
5909018,2.068006,-0.04845664,2.085816
5909021,2.066586,0.04423466,2.084595
5909024,2.066586,0.04423466,2.084595
5909026,2.062225,0.04845664,2.07999
5909029,2.060611,0.04845664,2.07839
5909031,2.060611,0.04845664,2.07839
5909035,2.057094,0.05233916,2.074903
5909037,2.057094,0.05233916,2.074903
5909040,2.055856,0.05233916,2.073676
5909043,2.056903,0.05233916,2.07462
5909045,2.056903,0.05233916,2.07462
5909048,2.05852,0.05595291,2.076223
5909050,2.05833,0.05595291,2.076034
5909053,2.05833,0.05595291,2.076034
5909055,2.058235,0.0656106,2.075846
5909058,2.060801,0.06255726,2.078484
5909061,2.060801,0.06255726,2.078484
5909063,2.062984,0.05233916,2.080555
5909066,2.064217,0.05233916,2.081965
5909068,2.064217,0.05233916,2.081965
5909071,2.063743,0.04845664,2.081401
5909073,2.063743,0.04845664,2.081401
5909076,2.063648,0.05233916,2.081495
5909080,2.063743,-0.05233916,2.081683
5909082,2.063743,-0.05233916,2.081683
5909085,2.062794,-0.06255726,2.080648
5909087,2.062414,-0.0656106,2.080366
5909090,2.062414,-0.0656106,2.080366
5909092,2.060421,-0.07132626,2.078202
5909095,2.059661,-0.07661668,2.077354
5909098,2.059661,-0.07661668,2.077354
5909100,2.060041,-0.07912937,2.077731
5909103,2.060801,-0.08392937,2.078296
5909105,2.060801,-0.08392937,2.078296
5909108,2.058615,-0.08846933,2.07594
5909110,2.058615,-0.08846933,2.07594
5909113,2.055666,-0.1008706,2.072638
5909116,2.054333,-0.1008706,2.071316
5909118,2.054333,-0.1008706,2.071316
5909122,2.053189,-0.1008706,2.070181
5909124,2.051568,-0.1046783,2.068573
5909127,2.051568,-0.1046783,2.068573
5909129,2.050996,-0.1046783,2.067911
5909132,2.049373,-0.1065312,2.066396
5909135,2.049373,-0.1065312,2.066396
5909137,2.048513,-0.1065312,2.065544
5909140,2.046601,-0.1083524,2.063458
5909142,2.046601,-0.1083524,2.063458
5909145,2.045645,-0.1101434,2.062225
5909147,2.045645,-0.1101434,2.062225
5909150,2.044305,-0.1153499,2.060706
5909153,2.044113,-0.1170339,2.060231
5909155,2.044113,-0.1170339,2.060231
5909158,2.043826,-0.1186941,2.059946
5909160,2.038745,-0.1219466,2.054618
5909164,2.038745,-0.1219466,2.054618
5909166,2.036728,-0.1219466,2.052712
5909169,2.026999,-0.1266688,2.042773
5909172,2.026999,-0.1266688,2.042773
5909174,2.026999,-0.1266688,2.042773
5909177,2.026999,-0.1266688,2.042773
5909179,2.026999,-0.1266688,2.042773
5909182,2.026999,-0.1266688,2.042773
5909184,2.018582,-0.1412742,2.033266
5909187,2.012075,-0.1545051,2.025647
5909190,2.006914,-0.165511,2.019454
5909192,2.006914,-0.165511,2.019454
5909195,2.024294,-0.1170339,2.040472
5909197,1.975362,-0.1398823,1.993018
5909200,1.975362,-0.1398823,1.993018
5909202,1.921423,-0.1813082,1.939166
5909206,1.806453,-0.2654082,1.823919
5909209,1.806453,-0.2654082,1.823919
5909211,1.747421,-0.3077414,1.764473
5909214,1.697659,-0.3432113,1.714293
5909216,1.697659,-0.3432113,1.714293
5909219,1.600711,-0.4135417,1.6158
5909221,1.600711,-0.4135417,1.6158
5909224,1.561851,-0.4423477,1.576195
5909227,1.498155,-0.4869847,1.51129
5909229,1.498155,-0.4869847,1.51129
5909232,1.4714,-0.5059038,1.483981
5909234,1.451583,-0.5166202,1.463933
5909237,1.451583,-0.5166202,1.463933
5909240,1.414854,-0.5381398,1.426425
5909242,1.403466,-0.5450047,1.414577
5909245,1.403466,-0.5450047,1.414577
5909248,1.38041,-0.5602303,1.39072
5909251,1.374443,-0.5650989,1.384091
5909253,1.374443,-0.5650989,1.384091
5909256,1.367449,-0.5706123,1.376719
5909259,1.367449,-0.5706123,1.376719
5909261,1.360419,-0.5706123,1.369737
5909264,1.354797,-0.5726661,1.364153
5909266,1.354797,-0.5726661,1.364153
5909269,1.348572,-0.5647526,1.358835
5909271,1.344066,-0.563365,1.354653
5909274,1.344066,-0.563365,1.354653
5909277,1.293163,-0.5911604,1.308956
5909279,1.215953,0.65342,1.233528
5909282,1.215953,0.65342,1.233528
5909284,1.172698,0.6988559,1.187456
5909287,1.137288,0.741777,1.146542
5909289,1.137288,0.741777,1.146542
5909293,1.085885,0.8266156,1.078834
5909296,1.065878,0.8632076,1.050157
5909298,1.065878,0.8632076,1.050157
5909301,1.037975,0.9215358,1.006194
5909303,1.037975,0.9215358,1.006194
5909306,1.025457,0.9481196,0.9853634
5909308,1.018372,0.9685385,0.9713628
5909311,1.018372,0.9685385,0.9713628
5909314,1.003857,1.007748,0.9431533
5909316,0.9911057,1.012784,0.9350269
5909319,0.9911057,1.012784,0.9350269
5909321,0.9671232,1.028886,0.9155711
5909324,0.9561348,1.028315,0.9112865
5909326,0.9561348,1.028315,0.9112865
5909329,0.9454328,1.030786,0.9050379
5909332,0.9142877,1.034387,0.8913127
5909335,0.9142877,1.034387,0.8913127
5909338,0.8967844,1.037598,0.8840382
5909340,0.8967844,1.037598,0.8840382
5909343,0.9200482,1.030596,0.8970026
5909345,0.9518273,1.030216,0.9099972
5909348,0.9518273,1.030216,0.9099972
5909351,0.9859589,1.030596,0.9245038
5909353,1.038917,1.04324,0.9416999
5909356,1.038917,1.04324,0.9416999
5909358,1.073014,1.052391,0.9542912
5909361,1.101984,1.076292,0.9693463
5909363,1.12657,1.076292,0.9693463
5909366,1.15216,1.085164,0.977788
5909369,1.173865,1.095751,0.9833755
5909371,1.173865,1.095751,0.9833755
5909374,1.207232,1.111355,0.993669
5909377,1.207232,1.111355,0.993669
5909380,1.21997,1.117151,0.9981881
5909382,1.236697,1.12431,1.004442
5909385,1.236697,1.12431,1.004442
5909388,1.242066,1.126222,1.006388
5909390,1.250544,1.122219,1.014521
5909393,1.250544,1.122219,1.014521
5909395,1.254138,1.118201,1.019524
5909398,1.257877,1.116976,1.022973
5909400,1.257877,1.116976,1.022973
5909403,1.248195,1.013943,1.077563
5909406,1.247411,0.9779881,1.097179
5909408,1.247411,0.9779881,1.097179
5909411,1.246155,0.8789325,1.147565
5909413,1.246155,0.8789325,1.147565
5909416,1.249762,0.8355626,1.171362
5909419,1.259587,0.7722777,1.206907
5909422,1.259587,0.7722777,1.206907
5909425,1.265786,0.7401926,1.225092
5909427,1.272109,0.7143636,1.240331
5909430,1.272109,0.7143636,1.240331
5909432,1.283747,0.6737661,1.264704
5909435,1.289223,0.6578966,1.274722
5909437,1.289223,0.6578966,1.274722
5909440,1.297695,0.6327289,1.28983
5909443,1.301159,0.6224399,1.295733
5909445,1.301159,0.6224399,1.295733
5909448,1.307011,0.607807,1.305213
5909450,1.307011,0.607807,1.305213
5909453,1.309404,0.6026341,1.309105
5909456,1.313582,0.5911604,1.315369
5909458,1.313582,0.5911604,1.315369
5909462,1.31522,0.5851721,1.317895
5909464,1.317004,0.5797972,1.320417
5909467,1.317004,0.5797972,1.320417
5909469,1.317301,0.5695826,1.322342
5909472,1.317895,0.5650989,1.323378
5909475,1.317895,0.5650989,1.323378
5909477,1.318341,0.5581307,1.32456
5909480,1.318786,0.5546138,1.325594
5909482,1.318786,0.5546138,1.325594
5909485,1.318637,0.5510744,1.325004
5909487,1.318637,0.5510744,1.325004
5909490,1.317598,0.5453635,1.323674
5909493,1.316855,0.5432066,1.322934
5909495,1.316855,0.5432066,1.322934
5909498,1.314476,0.5392296,1.320565
5909500,1.313135,0.5374122,1.319231
5909504,1.313135,0.5374122,1.319231
5909506,1.311942,0.5352231,1.318637
5909509,1.307909,0.5348573,1.314922
5909512,1.307909,0.5348573,1.314922
5909514,1.306711,0.5344914,1.313582
5909517,1.304613,0.5337587,1.311346
5909519,1.304613,0.5337587,1.311346
5909522,1.303863,0.5326577,1.310599
5909524,1.303863,0.5326577,1.310599
5909527,1.302061,0.5311863,1.309105
5909530,1.30176,0.53008,1.308657
5909532,1.30176,0.53008,1.308657
5909535,1.300707,0.5289715,1.30746
5909537,1.299955,0.5274898,1.306262
5909540,1.299955,0.5274898,1.306262
5909542,1.296488,0.5286014,1.302662
5909545,1.292558,0.5293413,1.298449
5909549,1.292558,0.5293413,1.298449
5909551,1.29074,0.5315546,1.295733
5909554,1.289375,0.5322903,1.293768
5909556,1.288312,0.533392,1.292255
5909559,1.287248,0.5311863,1.292861
5909561,1.287248,0.5311863,1.292861
5909564,1.28664,0.5297108,1.293466
5909567,1.28527,0.5260038,1.294524
5909569,1.28527,0.5260038,1.294524
5909572,1.284509,0.5241405,1.294827
5909574,1.281916,0.5267473,1.291498
5909577,1.281916,0.5267473,1.291498
5909579,1.278247,0.530449,1.286792
5909582,1.276716,0.5311863,1.285727
5909585,1.276716,0.5311863,1.285727
5909587,1.274875,0.5322903,1.284661
5909591,1.273185,0.5344914,1.281611
5909593,1.273185,0.5344914,1.281611
5909596,1.271801,0.5363187,1.279319
5909598,1.271801,0.5363187,1.279319
5909601,1.2698,0.5388666,1.276869
5909604,1.269029,0.5395923,1.276256
5909606,1.269029,0.5395923,1.276256
5909609,1.267795,0.5392296,1.275796
5909611,1.267331,0.5385033,1.275642
5909614,1.267331,0.5385033,1.275642
5909616,1.267177,0.5385033,1.275949
5909619,1.266868,0.5385033,1.275949
5909622,1.266868,0.5385033,1.275949
5909624,1.265477,0.5421248,1.274261
5909627,1.264394,0.5453635,1.272878
5909629,1.264394,0.5453635,1.272878
5909633,1.261295,0.5421248,1.271955
5909635,1.259587,0.5381398,1.271955
5909638,1.259587,0.5381398,1.271955
5909641,1.257566,0.5381398,1.270878
5909643,1.257566,0.5381398,1.270878
5909646,1.256788,0.5406791,1.270108
5909648,1.254606,0.5403171,1.268875
5909651,1.254606,0.5403171,1.268875
5909654,1.253045,0.5388666,1.268103
5909656,1.251639,0.5406791,1.267177
5909659,1.251639,0.5406791,1.267177
5909661,1.25117,0.5435666,1.266559
5909664,1.250857,0.5457222,1.26625
5909666,1.250857,0.5457222,1.26625
5909669,1.245527,0.5492961,1.257566
5909672,1.243797,0.5514293,1.254294
5909675,1.243797,0.5514293,1.254294
5909678,1.241277,0.563365,1.24537
5909680,1.241277,0.563365,1.24537
5909683,1.240647,0.5688952,1.24175
5909685,1.2397,0.5791218,1.234639
5909688,1.2397,0.5791218,1.234639
5909691,1.239542,0.583833,1.231782
5909693,1.238595,0.5911604,1.22589
5909696,1.238595,0.5911604,1.22589
5909698,1.238279,0.5944612,1.223493
5909701,1.238911,0.5974163,1.221733
5909703,1.238911,0.5974163,1.221733
5909706,1.238911,0.6003569,1.218204
5909709,1.238437,0.6010084,1.216275
5909711,1.238437,0.6010084,1.216275
5909714,1.238437,0.6016592,1.213537
5909716,1.238437,0.6016592,1.213537
5909720,1.238753,0.6016592,1.212407
5909722,1.238753,0.6016592,1.209984
5909725,1.238753,0.6016592,1.209984
5909728,1.238437,0.6023093,1.208689
5909730,1.238121,0.6026341,1.207394
5909733,1.238121,0.6026341,1.207394
5909735,1.239384,0.6010084,1.207232
5909738,1.2397,0.6006827,1.207069
5909740,1.2397,0.6006827,1.207069
5909743,1.240805,0.6019843,1.206259
5909746,1.24112,0.6029587,1.205772
5909748,1.24112,0.6029587,1.205772
5909751,1.241435,0.5997046,1.205934
5909753,1.241435,0.5997046,1.205934
5909756,1.24175,0.5990517,1.205934
5909758,1.24112,0.6000308,1.20431
5909762,1.24112,0.6000308,1.202847
5909765,1.240173,0.6026341,1.201545
5909767,1.239069,0.6029587,1.200241
5909770,1.239069,0.6029587,1.200241
5909772,1.238279,0.6029587,1.199099
5909775,1.234163,0.6039315,1.19534
5909777,1.234163,0.6039315,1.19534
5909780,1.232735,0.6045791,1.19403
5909783,1.230352,0.6049027,1.19239
5909785,1.230352,0.6049027,1.19239
5909788,1.229715,0.605226,1.191733
5909790,1.229715,0.605226,1.191733
5909793,1.337059,0.5363187,1.305063
5909795,1.500635,0.4441136,1.475915
5909798,1.500635,0.4441136,1.475915
5909801,1.633267,0.3560827,1.617857
5909804,1.839411,0.2839303,1.834937
5909807,1.839411,0.2839303,1.834937
5909809,1.908136,0.2586879,1.910698
5909812,1.969011,0.2571706,1.976353
5909814,1.969011,0.2571706,1.976353
5909817,2.061275,0.2880355,2.074242
5909820,2.096392,0.3071049,2.110998
5909822,2.096392,0.3071049,2.110998
5909825,2.11988,0.3232465,2.135517
5909827,2.11988,0.3232465,2.135517
5909830,2.16347,0.358274,2.180411
5909832,2.18382,0.3758652,2.201226
5909835,2.18382,0.3758652,2.201226
5909838,2.205668,0.3956476,2.223432
5909840,2.209037,0.3986039,2.226774
5909843,2.209037,0.3986039,2.226774
5909846,2.221494,-0.410693,2.239483
5909849,2.189637,0.3805216,2.207442
5909851,2.189637,0.3805216,2.207442
5909854,2.148492,0.3420692,2.166092
5909857,2.118587,0.311533,2.136158
5909859,2.118587,0.311533,2.136158
5909862,2.095645,0.2887141,2.113315
5909864,2.095645,0.2887141,2.113315
5909867,2.044496,-0.2414744,2.06251
5909870,2.018,-0.2220564,2.035767
5909872,2.018,-0.2220564,2.035767
5909875,1.976749,-0.191797,1.993607
5909877,1.960545,-0.1802258,1.977046
5909880,1.960545,-0.1802258,1.977046
5909882,1.93472,-0.1631294,1.950336
5909885,1.924374,-0.1557664,1.939872
5909889,1.924374,-0.1557664,1.939872
5909891,1.909776,-0.1480375,1.924883
5909894,1.904748,-0.1440177,1.919691
5909896,1.904748,-0.1440177,1.919691
5909899,1.901149,-0.1440177,1.916017
5909901,1.901149,-0.1440177,1.916017
5909904,1.894136,-0.1297215,1.909571
5909907,1.892275,-0.1266688,1.907725
5909909,1.892275,-0.1266688,1.907725
5909912,1.887926,-0.1170339,1.90372
5909914,1.885125,-0.1170339,1.901046
5909917,1.885125,-0.1170339,1.901046
5909919,1.883256,-0.1170339,1.899089
5909922,1.869802,-0.1136409,1.885644
5909925,1.869802,-0.1136409,1.885644
5909927,1.859832,-0.1083524,1.875654
5909931,1.84536,-0.1083524,1.861094
5909933,1.84536,-0.1083524,1.861094
5909936,1.834297,-0.1101434,1.849809
5909938,1.825206,-0.1101434,1.840581
5909941,1.825206,-0.1101434,1.840581
5909944,1.801897,-0.14537,1.81456
5909946,1.801897,-0.14537,1.81456
5909949,1.793296,-0.1594904,1.80461
5909951,1.783996,-0.1791368,1.793405
5909954,1.783996,-0.1791368,1.793405
5909956,1.768129,-0.2102893,1.774096
5909959,1.761253,-0.2229358,1.765581
5909962,1.761253,-0.2229358,1.765581
5909964,1.755577,-0.23239,1.758362
5909967,1.745179,-0.2502292,1.745628
5909969,1.745179,-0.2502292,1.745628
5909972,1.741138,-0.2571706,1.740351
5909975,1.733139,-0.2646699,1.731331
5909978,1.733139,-0.2646699,1.731331
5909981,1.730088,-0.2697954,1.727371
5909983,1.730088,-0.2697954,1.727371
5909986,1.726578,-0.2762456,1.72272
5909988,1.721015,-0.289391,1.715091
5909991,1.721015,-0.289391,1.715091
5909993,1.718397,-0.3039024,1.709949
5909996,1.716118,-0.3165179,1.705365
5909999,1.714064,-0.3488659,1.696967
5910001,1.712694,-0.3763854,1.689686
5910004,1.711779,-0.3995845,1.683537
5910006,1.711779,-0.3995845,1.683537
5910009,1.722606,-0.4796977,1.673978
5910011,1.727597,-0.5120549,1.669881
5910014,1.727597,-0.5120549,1.669881
5910018,1.742598,-0.5881739,1.661304
5910020,1.742598,-0.5881739,1.661304
5910023,1.749324,-0.6192883,1.657294
5910025,1.756357,-0.6792617,1.641752
5910028,1.756357,-0.6792617,1.641752
5910030,1.77222,-0.7750598,1.616768
5910033,1.781581,-0.8325126,1.599243
5910036,1.781581,-0.8325126,1.599243
5910038,1.802331,-0.9293592,1.570349
5910041,1.811862,-0.9771874,1.553686
5910043,1.811862,-0.9771874,1.553686
5910046,1.821664,-1.019908,1.539133
5910048,1.86886,-1.15267,1.505322
5910051,1.86886,-1.15267,1.505322
5910054,1.904131,-1.234163,1.486879
5910056,1.904131,-1.234163,1.486879
5910060,2.009642,-1.446586,1.439263
5910062,2.057569,-1.533401,1.419686
5910065,2.057569,-1.533401,1.419686
5910068,2.141009,-1.664364,1.399836
5910070,2.284734,-1.876176,1.366303
5910073,2.284734,-1.876176,1.366303
5910075,2.393265,-2.021392,1.34712
5910078,2.580582,-2.262697,1.313582
5910080,2.580582,-2.262697,1.313582
5910083,2.701319,-2.411677,1.291498
5910086,2.811115,-2.544529,1.271494
5910088,2.811115,-2.544529,1.271494
5910091,3.04015,-2.817167,1.224453
5910093,3.04015,-2.817167,1.224453
5910096,3.155605,-2.952207,1.198936
5910098,3.387725,-3.220999,1.141753
5910102,3.387725,-3.220999,1.141753
5910105,3.504646,-3.354797,1.110651
5910107,3.731191,-3.611024,1.046985
5910110,3.731191,-3.611024,1.046985
5910112,3.840379,-3.733185,1.014907
5910115,3.942977,-3.846747,0.9859589
5910117,3.942977,-3.846747,0.9859589
5910120,4.152279,-4.078663,0.9119305
5910123,4.260483,-4.19764,0.8706562
5910125,4.260483,-4.19764,0.8706562
5910128,4.363498,-4.309662,0.8334522
5910130,4.363498,-4.309662,0.8334522
5910133,4.564586,-4.527012,0.7569224
5910135,4.660435,-4.629947,0.7184606
5910138,4.660435,-4.629947,0.7184606
5910141,4.751225,-4.726629,0.6841414
5910144,4.751225,-4.726629,0.6841414
5910147,4.751225,-4.726629,0.6841414
5910149,4.751225,-4.726629,0.6841414
5910152,4.917331,-4.904565,0.607807
5910154,4.917331,-4.904565,0.607807
5910157,5.249304,-5.254043,0.4626713
5910160,5.408598,-5.419421,0.3956476
5910162,5.408598,-5.419421,0.3956476
5910165,5.710108,-5.73005,0.2705197
5910167,5.710108,-5.73005,0.2705197
5910170,5.856284,-5.879533,0.2112177
5910172,5.99175,-6.017377,0.1582588
5910175,5.99175,-6.017377,0.1582588
5910178,6.15428,-6.181552,0.09487279
5910180,6.478716,-6.507346,-0.02797646
5910183,6.478716,-6.507346,-0.02797646
5910185,6.637908,-6.666327,-0.08846933
5910189,6.949354,-6.976061,-0.2017412
5910191,6.949354,-6.976061,-0.2017412
5910194,7.103322,-7.128657,-0.2533378
5910197,7.251876,-7.275618,-0.3039024
5910199,7.251876,-7.275618,-0.3039024
5910202,7.536843,-7.554294,-0.4279585
5910204,7.536843,-7.554294,-0.4279585
5910207,7.80185,-7.811505,-0.5471546
5910209,7.936076,-7.941071,-0.608772
5910212,7.936076,-7.941071,-0.608772
5910215,8.064189,-8.064628,-0.6652907
5910217,8.305721,-8.294176,-0.7950006
5910220,8.305721,-8.294176,-0.7950006
5910222,8.424362,-8.407119,-0.8529457
5910225,8.684599,-8.65458,-0.9885356
5910227,8.684599,-8.65458,-0.9885356
5910231,8.809394,-8.773262,-1.048665
5910234,8.932458,-8.889134,-1.120649
5910236,8.932458,-8.889134,-1.120649
5910239,9.179885,-9.122509,-1.251952
5910241,9.179885,-9.122509,-1.251952
5910244,9.316901,-9.252172,-1.32175
5910246,9.58066,-9.501646,-1.448749
5910249,9.58066,-9.501646,-1.448749
5910252,9.726719,-9.639452,-1.521743
5910254,9.998139,-9.89539,-1.651142
5910257,9.998139,-9.89539,-1.651142
5910259,10.12728,-10.01502,-1.72147
5910262,10.25599,-10.13452,-1.78816
5910264,10.25599,-10.13452,-1.78816
5910267,10.51807,-10.37519,-1.931278
5910270,10.64974,-10.49511,-2.005255
5910273,10.64974,-10.49511,-2.005255
5910276,10.78941,-10.61956,-2.09228
5910278,11.06822,-10.87013,-2.251858
5910281,11.06822,-10.87013,-2.251858
5910284,11.20774,-10.99044,-2.347937
5910286,11.20774,-10.99044,-2.347937
5910289,11.34406,-11.10903,-2.436385
5910291,11.63335,-11.36013,-2.622341
5910294,11.63335,-11.36013,-2.622341
5910296,11.78094,-11.48792,-2.716493
5910299,12.06977,-11.73606,-2.905892
5910302,12.06977,-11.73606,-2.905892
5910304,12.21569,-11.86088,-3.002114
5910307,12.51861,-12.12124,-3.195369
5910309,12.51861,-12.12124,-3.195369
5910312,12.67124,-12.25279,-3.290393
5910315,12.84161,-12.39869,-3.399379
5910318,12.84161,-12.39869,-3.399379
5910321,13.16398,-12.67655,-3.595483
5910323,13.16398,-12.67655,-3.595483
5910326,13.48217,-12.95156,-3.783307
5910328,13.64804,-13.09512,-3.879442
5910331,13.64804,-13.09512,-3.879442
5910333,13.80681,-13.22507,-3.994785
5910336,14.11525,-13.48113,-4.203561
5910339,14.11525,-13.48113,-4.203561
5910341,14.26042,-13.59671,-4.315022
5910344,14.55394,-13.83526,-4.522207
5910346,14.55394,-13.83526,-4.522207
5910349,14.72004,-13.97049,-4.635613
5910351,14.88198,-14.10335,-4.742393
5910354,14.88198,-14.10335,-4.742393
5910358,15.22976,-14.38917,-4.967396
5910360,15.22976,-14.38917,-4.967396
5910363,15.40647,-14.53442,-5.080296
5910365,15.57863,-14.67659,-5.187802
5910368,15.57863,-14.67659,-5.187802
5910370,16.01705,-15.05038,-5.426972
5910373,16.21736,-15.22087,-5.53619
5910376,16.21736,-15.22087,-5.53619
5910378,16.65913,-15.59644,-5.776518
5910381,16.86614,-15.77216,-5.88896
5910383,16.86614,-15.77216,-5.88896
5910386,17.31094,-16.1502,-6.127911
5910388,17.51241,-16.32118,-6.236085
5910391,17.51241,-16.32118,-6.236085
5910394,17.93749,-16.68002,-6.469266
5910396,17.93749,-16.68002,-6.469266
5910400,18.14108,-16.85177,-6.580255
5910402,18.55667,-17.19626,-6.819465
5910405,18.55667,-17.19626,-6.819465
5910407,18.7521,-17.35868,-6.930219
5910410,18.96635,-17.53702,-7.050628
5910413,18.96635,-17.53702,-7.050628
5910415,19.38152,-17.87684,-7.295277
5910418,19.57775,-18.03529,-7.414895
5910420,19.57775,-18.03529,-7.414895
5910423,19.77482,-18.19531,-7.532467
5910425,20.13378,-18.47171,-7.778368
5910428,20.13378,-18.47171,-7.778368
5910431,20.30935,-18.60925,-7.892622
5910433,20.30935,-18.60925,-7.892622
5910436,20.64378,-18.85694,-8.138561
5910438,20.81151,-18.98445,-8.254024
5910441,20.81151,-18.98445,-8.254024
5910444,21.12812,-19.21414,-8.493222
