time,turnedAngle,pitchAngle,yawAngle
 ,0,0,0
436573,0,0,0
436576,0,0,0
436568,0,0,0
436571,0,0,0
436573,0,0,0
436576,0.5861744,0.5865081,0.02797646
0,0.5851721,0.5848376,0.02797646
1,0.5851721,0.5848376,0.02797646
2,0.5841681,0.5841681,0
4,0.5841681,0.5841681,0
5,0.583833,0.583833,0.01978234
7,0.583833,0.583833,0.01978234
8,0.5834977,0.5834977,0.01978234
10,0.5834977,0.5834977,0.01978234
12,0.583833,0.5834977,0.01978234
14,0.583833,0.5834977,0.01978234
16,0.5845029,0.5834977,0.02797646
19,0.5845029,0.5834977,0.02797646
21,0.5841681,0.5831623,0.03426402
23,0.5828267,0.5824909,0.02797646
25,0.5828267,0.5824909,0.02797646
27,0.5797972,0.5794597,0.02797646
29,0.5797972,0.5794597,0.02797646
32,0.5791218,0.5784457,0.02797646
34,0.5791218,0.5784457,0.02797646
36,0.5784457,0.57743,0.02797646
38,0.5784457,0.57743,0.02797646
40,0.5781073,0.5767518,0.02797646
43,0.5781073,0.5767518,0.02797646
46,0.577091,0.5760729,0.03426402
48,0.577091,0.5760729,0.03426402
50,0.5760729,0.5747126,0.03426402
52,0.5753932,0.5743721,0.03426402
54,0.5753932,0.5743721,0.03426402
56,0.5747126,0.5736903,0.02797646
58,0.5747126,0.5736903,0.02797646
61,0.5747126,0.5736903,0.03426402
63,0.5747126,0.5733491,0.03426402
65,0.5747126,0.5733491,0.03956468
67,0.5747126,0.5733491,0.03956468
69,0.5743721,0.5730078,0.03426402
71,0.5743721,0.5730078,0.03426402
74,0.5736903,0.5723243,0.03956468
76,0.5736903,0.5723243,0.03956468
78,0.5740312,0.5723243,0.03956468
80,0.5743721,0.5723243,0.03956468
82,0.5743721,0.5723243,0.03956468
84,0.5733491,0.5719823,0.03426402
88,0.5733491,0.5719823,0.03426402
90,0.5726661,0.5712977,0.03956468
92,0.5726661,0.5712977,0.03956468
94,0.5740312,0.5730078,0.03956468
96,0.5740312,0.5730078,0.03956468
98,0.5767518,0.575053,0.03426402
100,0.5767518,0.575053,0.03426402
103,0.5797972,0.5777687,0.03426402
105,0.5814822,0.5801346,0.03956468
107,0.5814822,0.5801346,0.03956468
109,0.5831623,0.5818186,0.03426402
112,0.5831623,0.5818186,0.03426402
114,0.5824909,0.5804718,0.03956468
116,0.5824909,0.5804718,0.03956468
118,0.583833,0.5821548,0.03956468
121,0.583833,0.5821548,0.03956468
123,0.5851721,0.5834977,0.04423466
125,0.5878411,0.5865081,0.03426402
128,0.5878411,0.5865081,0.03426402
131,0.5898349,0.5885065,0.03426402
133,0.5898349,0.5885065,0.03426402
135,0.590498,0.5891711,0.03426402
137,0.590498,0.5891711,0.03426402
140,0.5911604,0.5898349,0.03426402
142,0.5914913,0.589503,0.04423466
144,0.5914913,0.589503,0.04423466
146,0.5914913,0.5908293,0.03956468
149,0.5914913,0.5908293,0.03956468
151,0.5914913,0.5908293,0.03956468
153,0.5914913,0.5908293,0.03956468
155,0.5941319,0.5934729,0.02797646
158,0.5941319,0.5934729,0.02797646
160,0.5951191,0.5947903,0.03426402
162,0.5957764,0.5954478,0.03426402
164,0.5957764,0.5954478,0.03426402
166,0.5957764,0.5954478,0.02797646
169,0.5957764,0.5954478,0.02797646
172,0.5934729,0.5934729,0.02797646
174,0.5934729,0.5934729,0.02797646
176,0.5928131,0.5924829,0.03426402
179,0.5928131,0.5924829,0.03426402
181,0.5921526,0.5911604,0.01978234
183,0.5911604,0.5908293,0.01978234
185,0.5911604,0.5908293,0.01978234
188,0.590498,0.5901666,0.01978234
190,0.590498,0.5901666,0.01978234
192,0.5885065,0.5885065,0.02797646
194,0.5885065,0.5885065,0.02797646
197,0.5865081,0.5858405,0.01978234
199,0.5858405,0.5851721,0.01978234
201,0.5858405,0.5851721,0.01978234
203,0.5821548,0.5818186,0.01978234
206,0.5821548,0.5818186,0.01978234
208,0.5791218,0.5787839,0.02797646
210,0.5791218,0.5787839,0.02797646
212,0.5777687,0.5777687,0.01978234
216,0.5777687,0.5777687,0.01978234
218,0.5760729,0.5757331,0.01978234
220,0.575053,0.5747126,0.02797646
222,0.575053,0.5747126,0.02797646
225,0.5747126,0.5743721,0.02797646
227,0.5747126,0.5743721,0.02797646
229,0.575053,0.5747126,0.02797646
231,0.575053,0.5747126,0.02797646
233,0.575053,0.5747126,0.01978234
236,0.5733491,0.5730078,0.02797646
238,0.5733491,0.5730078,0.02797646
240,0.5723243,0.5716401,0
242,0.5723243,0.5716401,0
245,0.5712977,0.5702693,0.02797646
247,0.5712977,0.5702693,0.02797646
249,0.5688952,0.5688952,0.02797646
251,0.5688952,0.5688952,0.02797646
254,0.5706123,0.5699261,0.02797646
257,0.5726661,0.5716401,0.03426402
259,0.5726661,0.5716401,0.03426402
261,0.5712977,0.5706123,0.01978234
264,0.5712977,0.5706123,0.01978234
266,0.5712977,0.5702693,0.03426402
268,0.5712977,0.5702693,0.03426402
270,0.5712977,0.5702693,0.03426402
273,0.5712977,0.5702693,0.03426402
275,0.5709552,0.5706123,0.01978234
277,0.5716401,0.5699261,0.03426402
279,0.5716401,0.5699261,0.03426402
282,0.5709552,0.5702693,0.02797646
284,0.5709552,0.5702693,0.02797646
286,0.5709552,0.5695826,0.02797646
288,0.5709552,0.5695826,0.02797646
291,0.5706123,0.569239,0.02797646
293,0.5716401,0.5699261,0.02797646
295,0.5716401,0.5699261,0.02797646
297,0.5726661,0.5712977,0.03426402
300,0.5726661,0.5712977,0.03426402
303,0.5733491,0.5723243,0.03956468
305,0.5733491,0.5723243,0.03956468
307,0.5740312,0.5723243,0.03426402
309,0.5740312,0.5723243,0.03426402
312,0.5740312,0.5730078,0.02797646
314,0.5747126,0.5730078,0.03426402
316,0.5747126,0.5730078,0.03426402
318,0.5743721,0.5730078,0.03426402
321,0.5743721,0.5730078,0.03426402
323,0.5740312,0.5726661,0.02797646
325,0.5740312,0.5726661,0.02797646
327,0.5726661,0.5716401,0.01978234
330,0.5726661,0.5716401,0.01978234
332,0.5709552,0.5699261,0.02797646
334,0.5706123,0.569239,0.03426402
336,0.5706123,0.569239,0.03426402
339,0.5682068,0.5675176,0.03426402
342,0.5682068,0.5675176,0.03426402
344,0.5671728,0.5661368,0.03426402
346,0.5671728,0.5661368,0.03426402
349,0.5671728,0.5657911,0.03426402
351,0.5661368,0.5654452,0.02797646
353,0.5661368,0.5654452,0.02797646
355,0.5654452,0.5647526,0.02797646
357,0.5654452,0.5647526,0.02797646
360,0.5671728,0.5664824,0.02797646
362,0.5671728,0.5664824,0.02797646
364,0.5685511,0.5678623,0.01978234
366,0.5685511,0.5678623,0.01978234
369,0.5685511,0.5678623,0.02797646
371,0.5675176,0.5668277,0.02797646
373,0.5675176,0.5668277,0.02797646
375,0.5668277,0.5657911,0.02797646
378,0.5668277,0.5657911,0.02797646
380,0.5668277,0.5657911,0.02797646
382,0.5668277,0.5657911,0.02797646
385,0.5657911,0.5647526,0.03426402
388,0.5657911,0.5647526,0.03426402
390,0.5661368,0.5650989,0.01978234
392,0.5685511,0.5678623,0
394,0.5685511,0.5678623,0
397,0.5723243,0.5716401,0
399,0.5723243,0.5716401,0
401,0.5736903,0.5730078,0.02797646
403,0.5736903,0.5730078,0.02797646
406,0.57743,0.57743,0.01978234
408,0.5797972,0.5794597,0.02797646
410,0.5797972,0.5794597,0.02797646
412,0.5804718,0.5797972,0.02797646
415,0.5804718,0.5797972,0.02797646
417,0.5814822,0.5808088,0.02797646
419,0.5814822,0.5808088,0.02797646
421,0.5821548,0.5814822,0.02797646
423,0.5821548,0.5814822,0.02797646
427,0.5828267,0.5824909,0.02797646
429,0.5831623,0.5834977,0
431,0.5831623,0.5834977,0
433,0.5831623,0.5834977,0
436,0.5831623,0.5834977,0
438,0.5841681,0.5841681,0
440,0.5841681,0.5841681,0
442,0.5834977,0.583833,0.01978234
445,0.5834977,0.5831623,0.02797646
447,0.5834977,0.5831623,0.02797646
449,0.5828267,0.5828267,0.01978234
451,0.5828267,0.5828267,0.01978234
454,0.5828267,0.5824909,0.01978234
456,0.5828267,0.5824909,0.01978234
458,0.5824909,0.5821548,0.01978234
460,0.5824909,0.5821548,0.01978234
463,0.5791218,0.5784457,0.02797646
465,0.5784457,0.57743,0.02797646
467,0.5784457,0.57743,0.02797646
470,0.5811456,0.5804718,0.02797646
473,0.5811456,0.5804718,0.02797646
475,0.5821548,0.5811456,0.02797646
477,0.5821548,0.5811456,0.02797646
479,0.5831623,0.5818186,0.03426402
482,0.5831623,0.5818186,0.03426402
484,0.5834977,0.5821548,0.04423466
486,0.583833,0.5818186,0.04423466
488,0.583833,0.5818186,0.04423466
490,0.5831623,0.5804718,0.04845664
493,0.5831623,0.5804718,0.04845664
495,0.583833,0.5804718,0.05595291
497,0.583833,0.5804718,0.05595291
499,0.5845029,0.5797972,0.0656106
502,0.5901666,0.583833,0.07661668
504,0.5901666,0.583833,0.07661668
506,0.5977437,0.590498,0.08392937
508,0.5977437,0.590498,0.08392937
512,0.6084505,0.5993783,0.09487279
514,0.6084505,0.5993783,0.09487279
516,0.6240098,0.6129363,0.1101434
518,0.6240098,0.6129363,0.1101434
521,0.644677,0.6314908,0.1219466
523,0.6567059,0.6425489,0.1282043
525,0.6567059,0.6425489,0.1282043
527,0.699975,0.6824232,0.1480375
530,0.699975,0.6824232,0.1480375
532,0.7300779,0.7102429,0.1619255
534,0.7300779,0.7102429,0.1619255
536,0.7501709,0.7284679,0.1701742
539,0.7501709,0.7284679,0.1701742
541,0.7815963,0.7576976,0.1845175
543,0.7969672,0.7720242,0.1907741
545,0.8101172,0.7843454,0.1948336
548,0.8216294,0.7950006,0.2007689
550,0.8216294,0.7950006,0.2007689
552,0.8448781,0.8173313,0.20842
555,0.8448781,0.8173313,0.20842
557,0.8663754,0.8383681,0.2139789
560,0.8771496,0.8490367,0.2167048
562,0.8771496,0.8490367,0.2167048
564,0.8952556,0.8672784,0.220287
566,0.8952556,0.8672784,0.220287
569,0.9099972,0.8831524,0.220287
571,0.9099972,0.8831524,0.220287
573,0.9164255,0.8899944,0.2211734
575,0.9164255,0.8899944,0.2211734
578,0.9285166,0.9035233,0.2193969
580,0.9341894,0.9104272,0.2185032
582,0.9341894,0.9104272,0.2185032
584,0.9423231,0.9211111,0.2148914
587,0.9423231,0.9211111,0.2148914
589,0.9489449,0.9299906,0.2093567
591,0.9489449,0.9299906,0.2093567
593,0.9470872,0.9306217,0.2036718
596,0.9470872,0.9306217,0.2036718
599,0.9464671,0.9331415,0.1968319
601,0.9468806,0.9348176,0.1938267
603,0.9468806,0.9348176,0.1938267
606,0.9377435,0.9293592,0.183454
608,0.9377435,0.9293592,0.183454
610,0.9261956,0.9208986,0.1713202
612,0.9261956,0.9208986,0.1713202
615,0.91941,0.9157847,0.165511
617,0.9151434,0.9157847,0.1532334
619,0.9151434,0.9157847,0.1532334
621,0.9174925,0.9219604,0.1412742
623,0.9174925,0.9219604,0.1412742
626,0.9050379,0.9115012,0.1341704
628,0.9050379,0.9115012,0.1341704
630,0.8877931,0.8965662,0.1219466
632,0.8877931,0.8965662,0.1219466
635,0.8818219,0.8913127,0.1186941
637,0.8538629,0.864793,0.1119058
640,0.8538629,0.864793,0.1119058
642,0.8437192,0.8554656,0.1008706
645,0.8430232,0.8554656,0.1008706
647,0.8425589,0.85638,0.09891172
649,0.8425589,0.85638,0.09891172
651,0.8303944,0.8446465,0.09065409
654,0.8206762,0.8348597,0.08622923
656,0.8206762,0.8348597,0.08622923
658,0.8018627,0.8151737,0.08156469
660,0.8018627,0.8151737,0.08156469
663,0.7932757,0.8060005,0.07912937
665,0.7932757,0.8060005,0.07912937
667,0.7800927,0.7920414,0.07661668
669,0.7800927,0.7920414,0.07661668
672,0.770502,0.7820969,0.07401875
674,0.7564052,0.7669383,0.07132626
676,0.7564052,0.7669383,0.07132626
678,0.7449358,0.7540734,0.07132626
681,0.7449358,0.7540734,0.07132626
684,0.7404569,0.7491269,0.07401875
686,0.7404569,0.7491269,0.07401875
688,0.7311491,0.7383398,0.07912937
690,0.7311491,0.7383398,0.07912937
693,0.7255072,0.7311491,0.08622923
695,0.7236168,0.7287365,0.08846933
697,0.7236168,0.7287365,0.08846933
699,0.7228051,0.7268545,0.09487279
702,0.7228051,0.7268545,0.09487279
704,0.7233464,0.7265852,0.1008706
706,0.7233464,0.7265852,0.1008706
708,0.7238871,0.7257769,0.1046783
711,0.7230757,0.7238871,0.1101434
713,0.7230757,0.7238871,0.1101434
715,0.721179,0.721179,0.1136409
717,0.721179,0.721179,0.1136409
720,0.7222635,0.7214502,0.1186941
722,0.7222635,0.7214502,0.1186941
724,0.7238871,0.721179,0.1266688
727,0.7238871,0.721179,0.1266688
730,0.7298098,0.7260464,0.1341704
732,0.733287,0.7287365,0.1384764
734,0.733287,0.7287365,0.1384764
736,0.7367479,0.7316842,0.1412742
739,0.7367479,0.7316842,0.1412742
741,0.7412493,0.7356848,0.14537
743,0.7412493,0.7356848,0.14537
745,0.7430948,0.7372789,0.1467098
748,0.7430948,0.7372789,0.1467098
750,0.7436213,0.7375443,0.1480375
752,0.7499101,0.7433581,0.1506579
754,0.7499101,0.7433581,0.1506579
756,0.7532945,0.7462481,0.1506579
759,0.7532945,0.7462481,0.1506579
761,0.7543329,0.747558,0.1506579
763,0.7543329,0.747558,0.1506579
765,0.7551107,0.7486043,0.1493534
769,0.7571809,0.751474,0.1467098
771,0.7571809,0.751474,0.1467098
773,0.7602757,0.7551107,0.14537
775,0.7602757,0.7551107,0.14537
778,0.7597608,0.7551107,0.1412742
780,0.7597608,0.7551107,0.1412742
782,0.7597608,0.7553698,0.1398823
784,0.7597608,0.7553698,0.1398823
787,0.7579558,0.7543329,0.1356209
789,0.7551107,0.7530347,0.1297215
791,0.7551107,0.7530347,0.1297215
793,0.7525149,0.7512136,0.1266688
796,0.7525149,0.7512136,0.1266688
798,0.7486043,0.7486043,0.1203313
800,0.7486043,0.7486043,0.1203313
802,0.7470343,0.7486043,0.1153499
805,0.7470343,0.7486043,0.1153499
807,0.7451985,0.7483428,0.1083524
809,0.742568,0.7467723,0.1027921
812,0.742568,0.7467723,0.1027921
814,0.7404569,0.7459858,0.09691329
817,0.7388696,0.745461,0.09487279
819,0.7340872,0.741777,0.09065409
821,0.7340872,0.741777,0.09065409
823,0.7265852,0.7359507,0.08392937
826,0.7230757,0.7338206,0.07912937
828,0.7230757,0.7338206,0.07912937
830,0.7184606,0.7303458,0.07132626
832,0.7184606,0.7303458,0.07132626
835,0.7268545,0.7407211,0.0656106
837,0.7268545,0.7407211,0.0656106
839,0.7399282,0.7564052,0.05934703
841,0.7399282,0.7564052,0.05934703
844,0.7449358,0.762332,0.05595291
846,0.7388696,0.7574393,0.05233916
848,0.7388696,0.7574393,0.05233916
850,0.7322189,0.7512136,0.04845664
854,0.7322189,0.7512136,0.04845664
856,0.7281993,0.7478197,0.04423466
858,0.7281993,0.7478197,0.04423466
860,0.7214502,0.7412493,0.03956468
863,0.7157319,0.7356848,0.03426402
865,0.7157319,0.7356848,0.03426402
867,0.7140896,0.7343537,0.03426402
869,0.7140896,0.7343537,0.03426402
872,0.7102429,0.7303458,0.02797646
874,0.7102429,0.7303458,0.02797646
876,0.7088641,0.7292733,0.02797646
878,0.7088641,0.7292733,0.02797646
880,0.7330202,0.7556288,0.02797646
883,0.7423044,0.7656615,0.02797646
885,0.7423044,0.7656615,0.02797646
887,0.7654059,0.7905577,0.02797646
889,0.7654059,0.7905577,0.02797646
892,0.7740492,0.8001527,0.02797646
894,0.7740492,0.8001527,0.02797646
897,0.7954926,0.8223435,0
899,0.7954926,0.8223435,0
902,0.8035691,0.8311011,0.01978234
904,0.7940154,0.8197219,0.01978234
906,0.7940154,0.8197219,0.01978234
908,0.7905577,0.8158936,0.01978234
911,0.7905577,0.8158936,0.01978234
913,0.7783349,0.8018627,0.01978234
915,0.7783349,0.8018627,0.01978234
917,0.774302,0.7972127,0.02797646
920,0.7656615,0.7870849,0.02797646
922,0.7656615,0.7870849,0.02797646
924,0.7625886,0.7833468,0.02797646
926,0.7625886,0.7833468,0.02797646
929,0.7561465,0.7755645,0.03426402
931,0.7561465,0.7755645,0.03426402
933,0.7540734,0.7730374,0.03956468
935,0.7540734,0.7730374,0.03956468
939,0.7519946,0.7699938,0.03956468
941,0.7509531,0.7684676,0.03956468
943,0.7509531,0.7684676,0.03956468
945,0.7506924,0.7677034,0.04423466
947,0.7506924,0.7677034,0.04423466
950,0.7501709,0.7666831,0.04845664
952,0.7501709,0.7666831,0.04845664
954,0.7517344,0.7674484,0.04845664
956,0.7517344,0.7674484,0.04845664
959,0.7522548,0.7682129,0.05233916
961,0.7522548,0.7671934,0.05595291
963,0.7522548,0.7671934,0.05595291
965,0.7522548,0.7669383,0.05595291
968,0.7522548,0.7669383,0.05595291
970,0.7545922,0.7684676,0.06255726
972,0.7545922,0.7684676,0.06255726
974,0.7564052,0.7694854,0.0656106
977,0.7574393,0.7707559,0.06852804
979,0.7574393,0.7707559,0.06852804
982,0.758472,0.7715172,0.07132626
984,0.758472,0.7715172,0.07132626
987,0.7558876,0.7689767,0.07132626
989,0.7558876,0.7689767,0.07132626
991,0.7543329,0.7671934,0.07401875
993,0.7543329,0.7671934,0.07401875
996,0.7545922,0.7671934,0.07401875
998,0.7545922,0.7671934,0.07401875
1000,0.7545922,0.7671934,0.07401875
1002,0.7538139,0.7666831,0.07401875
1005,0.7538139,0.7666831,0.07401875
1007,0.7532945,0.7664279,0.07661668
1009,0.7532945,0.7664279,0.07661668
1012,0.7519946,0.7651502,0.07401875
1014,0.7506924,0.7641266,0.07401875
1016,0.7506924,0.7641266,0.07401875
1019,0.7501709,0.7636142,0.07401875
1021,0.7501709,0.7636142,0.07401875
1024,0.7488656,0.7631016,0.06852804
1027,0.747558,0.7620752,0.06852804
1029,0.747558,0.7620752,0.06852804
1031,0.7472962,0.762332,0.06852804
1034,0.7472962,0.762332,0.06852804
1036,0.7465102,0.7620752,0.06255726
1038,0.7465102,0.7620752,0.06255726
1041,0.7465102,0.7620752,0.06255726
1043,0.7457234,0.7615615,0.05934703
1045,0.7457234,0.7615615,0.05934703
1048,0.7444103,0.760533,0.05233916
1050,0.7444103,0.760533,0.05233916
1052,0.7553698,0.7732905,0.04845664
1054,0.7715172,0.7925354,0.04423466
1057,0.7715172,0.7925354,0.04423466
1059,0.7885751,0.8118062,0.03956468
1061,0.7885751,0.8118062,0.03956468
1064,0.7974581,0.8218675,0.03426402
1067,0.7974581,0.8218675,0.03426402
1069,0.8011303,0.8266156,0.02797646
1072,0.796476,0.8221055,0.02797646
1074,0.796476,0.8221055,0.02797646
1076,0.8011303,0.8280347,0.01978234
1079,0.8011303,0.8280347,0.01978234
1081,0.8086666,0.8367326,0.01978234
1083,0.8086666,0.8367326,0.01978234
1086,0.8166127,0.8462666,0
1088,0.8209146,0.8511084,0
1090,0.8209146,0.8511084,0
1093,0.8320423,0.8629809,0
1095,0.8320423,0.8629809,0
1097,0.8430232,0.8746923,0
1100,0.854092,0.8844808,0
1102,0.854092,0.8844808,0
1104,0.8697567,0.8987461,0
1107,0.8697567,0.8987461,0
1110,0.8755867,0.9039564,0
1112,0.8755867,0.9039564,0
1115,0.8941622,0.9204736,0
1117,0.9155711,0.9383693,0
1119,0.9155711,0.9383693,0
1122,0.9272513,0.948326,0
1124,0.9272513,0.948326,0
1126,0.9431533,0.9620516,0
1129,0.9528548,0.970355,0
1131,0.9528548,0.970355,0
1133,0.9565441,0.9737772,0
1136,0.9565441,0.9737772,0
1138,0.957975,0.9747815,0
1140,0.957975,0.9747815,0
1142,0.9270402,0.9439828,0
1145,0.9013549,0.9181321,0
1147,0.9013549,0.9181321,0
1149,0.8478836,0.8650193,0
1153,0.8478836,0.8650193,0
1155,0.8213912,0.8383681,0
1157,0.7805943,0.7977034,0.01978234
1160,0.7805943,0.7977034,0.01978234
1162,0.7391344,0.7566639,0.01978234
1164,0.7391344,0.7566639,0.01978234
1167,0.7230757,0.7404569,0
1169,0.7230757,0.7404569,0
1171,0.6937978,0.7113441,0.02797646
1174,0.6728944,0.690405,0.01978234
1176,0.6728944,0.690405,0.01978234
1178,0.6647022,0.6824232,0.02797646
1181,0.6647022,0.6824232,0.02797646
1183,0.6513204,0.6682253,0.03426402
1185,0.6513204,0.6682253,0.03426402
1188,0.6404136,0.6570037,0.03956468
1190,0.6355062,0.651921,0.03956468
1192,0.6355062,0.651921,0.03956468
1196,0.6274496,0.6437659,0.04423466
1198,0.6274496,0.6437659,0.04423466
1200,0.6236961,0.6398023,0.04845664
1203,0.6167554,0.6327289,0.04845664
1205,0.6167554,0.6327289,0.04845664
1207,0.6110179,0.6268256,0.05595291
1210,0.6110179,0.6268256,0.05595291
1212,0.6122975,0.6274496,0.05595291
1214,0.6122975,0.6274496,0.05595291
1217,0.6119779,0.6271377,0.05595291
1219,0.614212,0.6283845,0.06255726
1221,0.614212,0.6283845,0.06255726
1224,0.614212,0.6277614,0.06255726
1226,0.614212,0.6277614,0.06255726
1228,0.6173896,0.6299395,0.06852804
1230,0.6173896,0.6299395,0.07132626
1233,0.6173896,0.6299395,0.07132626
1235,0.6199199,0.6314908,0.07912937
1238,0.6199199,0.6314908,0.07912937
1241,0.6224399,0.633656,0.07912937
1243,0.6224399,0.633656,0.07912937
1245,0.6240098,0.6345818,0.07912937
1248,0.6255757,0.6348901,0.08392937
1250,0.6255757,0.6348901,0.08392937
1252,0.6321102,0.6404136,0.09278741
1255,0.6321102,0.6404136,0.09278741
1257,0.6351982,0.6425489,0.09278741
1259,0.6351982,0.6425489,0.09278741
1262,0.6382713,0.6449805,0.09691329
1264,0.6416347,0.6477052,0.1008706
1266,0.6416347,0.6477052,0.1008706
1269,0.6440698,0.649214,0.1046783
1271,0.6440698,0.649214,0.1046783
1273,0.6474031,0.6507192,0.1101434
1276,0.6507192,0.65342,0.1153499
1278,0.6507192,0.65342,0.1153499
1281,0.6528208,0.6543178,0.1170339
1284,0.6528208,0.6543178,0.1170339
1286,0.6540186,0.6543178,0.1235407
1288,0.6540186,0.6543178,0.1235407
1291,0.652521,0.651921,0.1266688
1293,0.6480073,0.64589,0.1312212
1295,0.6480073,0.64589,0.1312212
1298,0.6410245,0.6373509,0.1356209
1300,0.6410245,0.6373509,0.1356209
1302,0.6122975,0.6055493,0.14537
1305,0.5914913,0.5818186,0.1519511
1307,0.5914913,0.5818186,0.1519511
1309,0.5453635,0.5289715,0.1643245
1312,0.5453635,0.5289715,0.1643245
1314,0.5028,0.4788812,0.1769387
1316,0.5028,0.4788812,0.1769387
1318,0.4780633,0.4498048,0.183454
1321,0.4410186,0.403483,0.1928145
1324,0.4410186,0.403483,0.1928145
1326,0.4083038,0.3615361,0.199792
1329,0.4083038,0.3615361,0.199792
1331,0.393167,0.3414966,0.2036718
1333,0.3626169,0.3006659,0.2093567
1336,0.3626169,0.3006659,0.2093567
1338,0.3471792,0.2804634,0.2121421
1340,0.3471792,0.2804634,0.2121421
1343,0.3183671,0.2390311,0.2148914
1345,0.3183671,0.2390311,0.2148914
1347,0.2934199,0.2027088,0.2158
1350,0.2654082,0.1493534,0.2193969
1352,0.2654082,0.1493534,0.2193969
1354,0.2533378,0.1203313,0.2220564
1357,0.2533378,0.1203313,0.2220564
1359,0.2414744,0.07132626,0.2255535
1361,0.2414744,0.07132626,0.2255535
1364,0.2438933,-0.05934703,0.2289973
1367,0.249446,-0.06852804,0.2315465
1369,0.249446,-0.06852804,0.2315465
1372,0.235734,-0.05934703,0.220287
1374,0.235734,-0.05934703,0.220287
1376,0.23239,-0.05595291,0.2176059
1379,0.2193969,0.05595291,0.2055842
1381,0.2193969,0.05595291,0.2055842
1383,0.2112177,0.07132626,0.1948336
1386,0.2112177,0.07132626,0.1948336
1388,0.2093567,0.08156469,0.1897456
1390,0.2093567,0.08156469,0.1897456
1393,0.2065338,0.09278741,0.1823843
1395,0.2036718,0.1046783,0.174713
1397,0.2036718,0.1046783,0.174713
1400,0.2017412,0.1101434,0.1724585
1402,0.2017412,0.1101434,0.1724585
1404,0.1978235,0.1170339,0.1643245
1406,0.1938267,0.1219466,0.1582588
1410,0.1938267,0.1219466,0.1582588
1412,0.191797,0.1235407,0.1557664
1414,0.191797,0.1235407,0.1557664
1417,0.1876719,0.1251145,0.1519511
1419,0.1876719,0.1251145,0.1519511
1421,0.1845175,0.1235407,0.1480375
1424,0.1813082,0.1235407,0.1467098
1426,0.1813082,0.1235407,0.1467098
1428,0.1802258,0.1251145,0.1440177
1431,0.1802258,0.1251145,0.1440177
1433,0.1758294,0.1251145,0.1398823
1435,0.1758294,0.1251145,0.1398823
1438,0.174713,0.1251145,0.1384764
1440,0.1713202,0.1203313,0.1384764
1442,0.1713202,0.1203313,0.1384764
1445,0.2238118,0.2139789,0.1186941
1447,0.2238118,0.2139789,0.1186941
1449,0.2502292,0.249446,0.1119058
1453,0.339197,0.3533245,0.09278741
1455,0.339197,0.3533245,0.09278741
1457,0.4049353,0.4256662,0.07912937
1460,0.4049353,0.4256662,0.07912937
1462,0.4609765,0.4845679,0.0656106
1464,0.4609765,0.4845679,0.0656106
1467,0.5500081,0.5760729,0.04423466
1469,0.6425489,0.6691033,0.01978234
1471,0.6425489,0.6691033,0.01978234
1474,0.711069,0.7375443,0
1476,0.711069,0.7375443,0
1478,0.7438844,0.7699938,0
1481,0.7737964,0.7996635,0
1483,0.7737964,0.7996635,0
1485,0.8074558,0.8336869,0
1488,0.8074558,0.8336869,0
1490,0.8235324,0.8506485,0
1492,0.8235324,0.8506485,0
1495,0.8225815,0.8499581,0
1498,0.8268523,0.8554656,0
1500,0.8268523,0.8554656,0
1502,0.8221055,0.8501883,0
1505,0.8221055,0.8501883,0
1507,0.8199606,0.8488063,0
1509,0.8127698,0.8411642,0
1512,0.8127698,0.8411642,0
1514,0.8072135,0.8357967,0
1516,0.8072135,0.8357967,0
1519,0.7999081,0.828271,0
1521,0.7999081,0.828271,0
1523,0.7950006,0.8223435,0
1526,0.7920414,0.8187665,0.01978234
1528,0.7920414,0.8187665,0.01978234
1530,0.7927822,0.8187665,0.01978234
1533,0.7927822,0.8187665,0.01978234
1536,0.7925354,0.81781,0.01978234
1538,0.7925354,0.81781,0.01978234
1541,0.7940154,0.8187665,0.02797646
1543,0.7977034,0.8209146,0.02797646
1545,0.7977034,0.8209146,0.02797646
1548,0.7996635,0.8230571,0.02797646
1550,0.7996635,0.8230571,0.02797646
1552,0.8001527,0.8232948,0.02797646
1555,0.8050289,0.8268523,0.03426402
1557,0.8050289,0.8268523,0.03426402
1559,0.8079404,0.829923,0.03956468
1562,0.8079404,0.829923,0.03956468
1564,0.7808449,0.8011303,0.04423466
1566,0.7808449,0.8011303,0.04423466
1569,0.7625886,0.7820969,0.05233916
1571,0.7375443,0.7553698,0.05934703
1573,0.7375443,0.7553698,0.05934703
1575,0.7236168,0.7407211,0.06255726
1579,0.7236168,0.7407211,0.06255726
1581,0.7129927,0.7295417,0.06852804
1583,0.6966124,0.7127182,0.07132626
1586,0.6966124,0.7127182,0.07132626
1588,0.6909717,0.7060983,0.07401875
1590,0.6909717,0.7060983,0.07401875
1593,0.6812752,0.6960504,0.07401875
1595,0.6812752,0.6960504,0.07401875
1597,0.6778198,0.6921035,0.07661668
1600,0.6711472,0.6849989,0.07912937
1602,0.6711472,0.6849989,0.07912937
1604,0.6685182,0.6821364,0.07912937
1607,0.6685182,0.6821364,0.07912937
1609,0.6644077,0.6781085,0.07912937
1611,0.6632286,0.6769533,0.08156469
1614,0.6632286,0.6769533,0.08156469
1616,0.6629335,0.6760855,0.07912937
1618,0.6629335,0.6760855,0.07912937
1622,0.6578966,0.6711472,0.07912937
1624,0.6578966,0.6711472,0.07912937
1626,0.6561096,0.6696879,0.07912937
1629,0.652221,0.6661724,0.07661668
1631,0.652221,0.6661724,0.07661668
1633,0.6513204,0.6649964,0.07661668
1636,0.6513204,0.6649964,0.07661668
1638,0.649214,0.6638185,0.07661668
1640,0.649214,0.6638185,0.07661668
1643,0.64589,0.6611602,0.07401875
1645,0.6437659,0.659382,0.07132626
1647,0.6437659,0.659382,0.07132626
1650,0.6398023,0.6564078,0.06852804
1652,0.6398023,0.6564078,0.06852804
1654,0.6376578,0.6546168,0.0656106
1657,0.633656,0.6513204,0.0656106
1659,0.633656,0.6513204,0.0656106
1661,0.6318005,0.6495153,0.06255726
1664,0.6318005,0.6495153,0.06255726
1667,0.6305605,0.6480073,0.06255726
1669,0.6305605,0.6480073,0.06255726
1671,0.6258884,0.644677,0.05934703
1674,0.6205508,0.6407191,0.05595291
1676,0.6205508,0.6407191,0.05595291
1678,0.6180231,0.6382713,0.05595291
1681,0.6180231,0.6382713,0.05595291
1683,0.6158028,0.6361217,0.05233916
1685,0.6110179,0.6327289,0.05233916
1688,0.6110179,0.6327289,0.05233916
1690,0.608772,0.63025,0.04845664
1692,0.608772,0.63025,0.04845664
1695,0.6090934,0.6305605,0.04845664
1697,0.6090934,0.6305605,0.04845664
1699,0.6094146,0.6314908,0.04845664
1702,0.6090934,0.6305605,0.04423466
1704,0.6090934,0.6305605,0.04423466
1707,0.6090934,0.6308707,0.04423466
1710,0.6090934,0.6308707,0.04423466
1712,0.6094146,0.6308707,0.04845664
1714,0.6094146,0.6308707,0.04845664
1717,0.6094146,0.6308707,0.04845664
1719,0.6094146,0.6308707,0.04845664
1721,0.6094146,0.6308707,0.04845664
1724,0.6103771,0.6318005,0.04423466
1726,0.6103771,0.6318005,0.04423466
1728,0.6116581,0.6339648,0.04423466
1731,0.6119779,0.6345818,0.04423466
1733,0.6119779,0.6345818,0.04423466
1735,0.6189722,0.6407191,0.03956468
1738,0.6189722,0.6407191,0.03956468
1740,0.6214961,0.6428534,0.04423466
1742,0.6214961,0.6428534,0.04423466
1745,0.6236961,0.644677,0.04845664
1747,0.6243232,0.644677,0.04845664
1750,0.6243232,0.644677,0.04845664
1752,0.6262009,0.646193,0.04845664
1755,0.6262009,0.646193,0.04845664
1757,0.6286958,0.6486109,0.04423466
1759,0.6314908,0.6504185,0.05233916
1762,0.6314908,0.6504185,0.05233916
1764,0.6327289,0.651921,0.04845664
1766,0.6327289,0.651921,0.04845664
1769,0.6345818,0.65342,0.05233916
1771,0.6345818,0.65342,0.05233916
1773,0.6376578,0.6561096,0.04845664
1776,0.6404136,0.6587883,0.05233916
1778,0.6404136,0.6587883,0.05233916
1780,0.6437659,0.661456,0.05595291
1783,0.6437659,0.661456,0.05595291
1785,0.6474031,0.6644077,0.05595291
1787,0.6510199,0.6673463,0.05595291
1790,0.6510199,0.6673463,0.05595291
1793,0.65342,0.6702721,0.05595291
1795,0.65342,0.6702721,0.05595291
1798,0.6570037,0.6731851,0.06255726
1800,0.6570037,0.6731851,0.06255726
1802,0.6599753,0.6752167,0.06255726
1805,0.6620474,0.6766641,0.06255726
1807,0.6620474,0.6766641,0.06255726
1809,0.6644077,0.6786853,0.06852804
1812,0.6644077,0.6786853,0.06852804
1814,0.6658786,0.680413,0.0656106
1816,0.6658786,0.680413,0.0656106
1819,0.6658786,0.6798376,0.06852804
1821,0.6658786,0.6795497,0.07132626
1823,0.6658786,0.6795497,0.07132626
1826,0.667053,0.6798376,0.07132626
1828,0.667053,0.6798376,0.07132626
1830,0.6676395,0.680413,0.07401875
1833,0.6682253,0.680413,0.07661668
1836,0.6682253,0.680413,0.07661668
1838,0.6682253,0.680413,0.07661668
1840,0.6682253,0.680413,0.07661668
1843,0.6685182,0.680413,0.07661668
1845,0.6685182,0.680413,0.07661668
1847,0.6664661,0.6783969,0.07661668
1850,0.6661724,0.6783969,0.07661668
1852,0.6661724,0.6783969,0.07661668
1854,0.6673463,0.6792617,0.07661668
1857,0.6673463,0.6792617,0.07661668
1859,0.6676395,0.6795497,0.07912937
1861,0.6688108,0.6801254,0.07912937
1864,0.6688108,0.6801254,0.07912937
1866,0.66998,0.680988,0.07912937
1868,0.66998,0.680988,0.07912937
1871,0.6711472,0.6815624,0.07912937
1873,0.6711472,0.6815624,0.07912937
1875,0.6711472,0.6824232,0.07912937
1879,0.6720214,0.6824232,0.08156469
1881,0.6720214,0.6824232,0.08156469
1883,0.6720214,0.6827098,0.07912937
1886,0.6720214,0.6827098,0.07912937
1888,0.6714388,0.6827098,0.07912937
1890,0.6717301,0.6824232,0.07912937
1893,0.6717301,0.6824232,0.07912937
1895,0.66998,0.6812752,0.07661668
1897,0.66998,0.6812752,0.07661668
1900,0.6688108,0.6801254,0.07912937
1902,0.6688108,0.6801254,0.07912937
1904,0.6679325,0.6795497,0.07661668
1907,0.6667597,0.6783969,0.07401875
1909,0.6667597,0.6783969,0.07401875
1911,0.6655847,0.6778198,0.07401875
1914,0.6655847,0.6778198,0.07401875
1916,0.6649964,0.6769533,0.07401875
1918,0.6649964,0.6769533,0.07401875
1922,0.6626383,0.6746368,0.07401875
1924,0.661456,0.6734757,0.07401875
1926,0.661456,0.6734757,0.07401875
1928,0.660568,0.6728944,0.07132626
1931,0.660568,0.6728944,0.07132626
1933,0.6608641,0.6728944,0.07132626
1935,0.6599753,0.6726035,0.07132626
1938,0.6599753,0.6726035,0.07132626
1940,0.6596788,0.6728944,0.06852804
1942,0.6596788,0.6728944,0.06852804
1945,0.6573014,0.6708556,0.06852804
1947,0.6573014,0.6708556,0.06852804
1949,0.6564078,0.66998,0.06852804
1952,0.6531205,0.6667597,0.0656106
1954,0.6516207,0.6655847,0.0656106
1956,0.6501176,0.6641131,0.06255726
1959,0.6501176,0.6641131,0.06255726
1961,0.6477052,0.6620474,0.05934703
1964,0.646193,0.6608641,0.06255726
1967,0.646193,0.6608641,0.06255726
1969,0.6489125,0.6638185,0.05934703
1971,0.6489125,0.6638185,0.05934703
1974,0.6504185,0.6655847,0.05934703
1976,0.6504185,0.6655847,0.05934703
1978,0.6543178,0.6685182,0.05934703
1981,0.6552143,0.6702721,0.05934703
1983,0.6552143,0.6702721,0.05934703
1985,0.6537194,0.6685182,0.05595291
1988,0.6537194,0.6685182,0.05595291
1990,0.652221,0.6673463,0.05595291
1992,0.652221,0.6673463,0.05595291
1995,0.6552143,0.66998,0.05595291
1997,0.6564078,0.6708556,0.05595291
1999,0.6564078,0.6708556,0.05595291
2002,0.6587883,0.6734757,0.05934703
2004,0.6587883,0.6734757,0.05934703
2007,0.6608641,0.6755064,0.05934703
2010,0.6617518,0.6763749,0.05934703
2012,0.6617518,0.6763749,0.05934703
2014,0.6617518,0.6763749,0.05934703
2016,0.6617518,0.6763749,0.05934703
2019,0.6596788,0.6743467,0.05934703
2021,0.6596788,0.6743467,0.05934703
2023,0.6578966,0.6737661,0.05595291
2026,0.6584912,0.6737661,0.05595291
2028,0.6584912,0.6737661,0.05595291
2030,0.6578966,0.6731851,0.05595291
2033,0.6578966,0.6731851,0.05595291
2035,0.6578966,0.6731851,0.05595291
2037,0.6575991,0.6723125,0.05934703
2040,0.6575991,0.6723125,0.05934703
2042,0.6575991,0.6723125,0.05934703
2044,0.6575991,0.6723125,0.05934703
2048,0.6575991,0.6731851,0.05595291
2050,0.6575991,0.6731851,0.05595291
2052,0.6599753,0.6749268,0.05595291
2055,0.6629335,0.6783969,0.05934703
2057,0.6629335,0.6783969,0.05934703
2059,0.6652907,0.680413,0.05595291
2062,0.6652907,0.680413,0.05595291
2064,0.6667597,0.6812752,0.05595291
2066,0.6661724,0.6815624,0.05595291
2069,0.6661724,0.6815624,0.05595291
2071,0.6652907,0.680413,0.05595291
2073,0.6647022,0.6801254,0.05233916
2076,0.6649964,0.6801254,0.05233916
2078,0.6649964,0.6801254,0.05233916
2080,0.6649964,0.6807005,0.05233916
2083,0.6652907,0.680413,0.05233916
2085,0.6652907,0.680413,0.05233916
2087,0.6655847,0.680988,0.05595291
2091,0.6655847,0.680988,0.05595291
2093,0.6655847,0.680413,0.05595291
2095,0.6655847,0.680413,0.05595291
2098,0.6649964,0.6798376,0.05595291
2100,0.6647022,0.6789736,0.05595291
2102,0.6635236,0.6778198,0.05934703
2104,0.6629335,0.6766641,0.05934703
2107,0.6629335,0.6766641,0.05934703
2109,0.6635236,0.6772422,0.05934703
2111,0.6658786,0.6783969,0.06255726
2114,0.6658786,0.6783969,0.06255726
2116,0.6679325,0.6801254,0.06852804
2118,0.6679325,0.6801254,0.06852804
2121,0.6688108,0.680988,0.06852804
2123,0.6688108,0.680988,0.06852804
2125,0.6696879,0.6818494,0.06852804
2128,0.6737661,0.6852845,0.07132626
2130,0.6737661,0.6852845,0.07132626
2132,0.6763749,0.687565,0.07401875
2136,0.6763749,0.687565,0.07401875
2138,0.6775311,0.688134,0.07661668
2140,0.6781085,0.6884183,0.07661668
2143,0.6781085,0.6884183,0.07661668
2145,0.6818494,0.6912548,0.07912937
2147,0.6818494,0.6912548,0.07912937
2150,0.6838553,0.6935157,0.07912937
2152,0.6838553,0.6935157,0.07912937
2154,0.6926687,0.7013714,0.08392937
2157,0.7002546,0.7083117,0.08846933
2159,0.7002546,0.7083117,0.08846933
2161,0.7038778,0.711069,0.08846933
2164,0.7038778,0.711069,0.08846933
2166,0.7083117,0.7157319,0.09065409
2168,0.7083117,0.7157319,0.09065409
2171,0.7116191,0.7184606,0.09065409
2173,0.7140896,0.7203645,0.09065409
2176,0.7140896,0.7203645,0.09065409
2179,0.7200928,0.7265852,0.09065409
2181,0.7200928,0.7265852,0.09065409
2183,0.7246976,0.7303458,0.09278741
2185,0.7265852,0.7319516,0.09487279
2188,0.7265852,0.7319516,0.09487279
2190,0.7287365,0.7346201,0.09278741
2192,0.7287365,0.7346201,0.09278741
2195,0.7316842,0.7370135,0.09278741
2197,0.7316842,0.7370135,0.09278741
2199,0.7327532,0.7378095,0.09487279
2202,0.7335538,0.7380747,0.09487279
2204,0.7335538,0.7380747,0.09487279
2206,0.7335538,0.7378095,0.09487279
2209,0.7335538,0.7378095,0.09487279
2211,0.729005,0.7340872,0.09278741
2213,0.7260464,0.7311491,0.09065409
2216,0.7260464,0.7311491,0.09065409
2219,0.7203645,0.7260464,0.09065409
2221,0.7203645,0.7260464,0.09065409
2224,0.7168246,0.7236168,0.08846933
2226,0.7168246,0.7236168,0.08846933
2228,0.7124436,0.7192771,0.08846933
2231,0.7060983,0.7129927,0.08622923
2233,0.7060983,0.7129927,0.08622923
2235,0.7005339,0.7080355,0.08846933
2238,0.7005339,0.7080355,0.08846933
2240,0.6966124,0.7044336,0.08846933
2242,0.6935157,0.7013714,0.08622923
2245,0.6935157,0.7013714,0.08622923
2247,0.6915378,0.6994157,0.08846933
2249,0.6915378,0.6994157,0.08846933
2252,0.6861406,0.6946434,0.08846933
2254,0.6861406,0.6946434,0.08846933
2256,0.6849989,0.6929511,0.08846933
2259,0.6838553,0.6921035,0.08846933
2262,0.6838553,0.6921035,0.08846933
2264,0.6847132,0.6932335,0.09065409
2267,0.6847132,0.6932335,0.09065409
2269,0.6855699,0.6937978,0.09065409
2271,0.6855699,0.6937978,0.09065409
2273,0.6852845,0.6937978,0.08846933
2276,0.6852845,0.6940797,0.09065409
2278,0.6852845,0.6940797,0.09065409
2280,0.6858553,0.6937978,0.09065409
2283,0.6858553,0.6937978,0.09065409
2285,0.6861406,0.6943616,0.09278741
2287,0.6864257,0.6940797,0.09278741
2290,0.6864257,0.6940797,0.09278741
2292,0.6861406,0.6940797,0.09065409
2294,0.6861406,0.6940797,0.09065409
2297,0.6867107,0.6943616,0.09278741
2299,0.6867107,0.6943616,0.09278741
2301,0.6878495,0.6957693,0.09278741
2305,0.6889865,0.6977351,0.09278741
2307,0.6895542,0.6977351,0.09278741
2309,0.6915378,0.6994157,0.09278741
2312,0.6915378,0.6994157,0.09278741
2314,0.6940797,0.7022079,0.09065409
2316,0.694925,0.7027649,0.09065409
2319,0.694925,0.7027649,0.09065409
2321,0.6960504,0.7035998,0.09278741
2323,0.6960504,0.7035998,0.09278741
2326,0.6960504,0.7035998,0.09278741
2328,0.6960504,0.7035998,0.09278741
2330,0.6991359,0.7063754,0.09278741
2333,0.7016503,0.7088641,0.09278741
2335,0.7016503,0.7088641,0.09278741
2337,0.7083117,0.7146374,0.09487279
2340,0.7083117,0.7146374,0.09487279
2342,0.7121689,0.7187329,0.09278741
2344,0.7151849,0.7214502,0.09487279
2348,0.7151849,0.7214502,0.09487279
2350,0.7219925,0.7279305,0.09691329
2352,0.7219925,0.7279305,0.09691329
2355,0.7271236,0.7319516,0.09891172
2357,0.7271236,0.7319516,0.09891172
2359,0.7338206,0.7386047,0.09891172
2361,0.7354187,0.7404569,0.09891172
2364,0.7354187,0.7404569,0.09891172
2366,0.7438844,0.7488656,0.09691329
2368,0.7438844,0.7488656,0.09691329
2371,0.7548515,0.7602757,0.09487279
2373,0.7548515,0.7602757,0.09487279
2375,0.7587299,0.7641266,0.09487279
2378,0.760533,0.7661725,0.09278741
2380,0.760533,0.7661725,0.09278741
2382,0.762332,0.7677034,0.09487279
2385,0.762332,0.7677034,0.09487279
2387,0.7600183,0.7661725,0.09065409
2390,0.7574393,0.7633579,0.09065409
2393,0.7574393,0.7633579,0.09065409
2395,0.7543329,0.7607903,0.09065409
2397,0.7543329,0.7607903,0.09065409
2400,0.7530347,0.7595032,0.08846933
2402,0.7530347,0.7595032,0.08846933
2404,0.749649,0.7566639,0.08846933
2407,0.747558,0.7548515,0.08622923
2409,0.747558,0.7548515,0.08622923
2411,0.7576976,0.7654059,0.08392937
2414,0.7576976,0.7654059,0.08392937
2416,0.7613045,0.7692311,0.08392937
2418,0.7625886,0.7699938,0.08156469
2421,0.7625886,0.7699938,0.08156469
2423,0.7631016,0.770502,0.08392937
2425,0.7631016,0.770502,0.08392937
2428,0.7579558,0.7654059,0.08392937
2430,0.7579558,0.7654059,0.08392937
2433,0.7545922,0.7620752,0.08156469
2436,0.7504317,0.7582139,0.08156469
2438,0.7504317,0.7582139,0.08156469
2440,0.7478197,0.7553698,0.08392937
2443,0.7478197,0.7553698,0.08392937
2445,0.741777,0.7499101,0.08156469
2447,0.741777,0.7499101,0.08156469
2449,0.7393991,0.747558,0.08156469
2452,0.7351527,0.7433581,0.07912937
2454,0.7351527,0.7433581,0.07912937
2456,0.7322189,0.7404569,0.07912937
2459,0.7322189,0.7404569,0.07912937
2461,0.7279305,0.7364823,0.07912937
2463,0.7252374,0.7338206,0.07912937
2466,0.7252374,0.7338206,0.07912937
2468,0.7238871,0.7327532,0.07912937
2470,0.7238871,0.7327532,0.07912937
2473,0.7219925,0.7308815,0.08156469
2476,0.7219925,0.7308815,0.08156469
2478,0.721179,0.7303458,0.08156469
2481,0.721179,0.7295417,0.08156469
2483,0.721179,0.7295417,0.08156469
2485,0.7238871,0.7322189,0.08392937
2488,0.7238871,0.7322189,0.08392937
2490,0.7257769,0.7338206,0.08156469
2492,0.7306137,0.7388696,0.08392937
2495,0.7306137,0.7388696,0.08392937
2497,0.7322189,0.7404569,0.08392937
2499,0.7322189,0.7404569,0.08392937
2502,0.7351527,0.7430948,0.08392937
2504,0.7351527,0.7430948,0.08392937
2506,0.7372789,0.7449358,0.08392937
2509,0.7391344,0.7467723,0.08622923
2511,0.7404569,0.7478197,0.08846933
2513,0.741777,0.7488656,0.08846933
2516,0.741777,0.7488656,0.08846933
2519,0.7415132,0.7491269,0.08846933
2521,0.7401926,0.747558,0.08622923
2524,0.7401926,0.747558,0.08622923
2526,0.7401926,0.747558,0.08846933
2528,0.7401926,0.747558,0.08846933
2531,0.7412493,0.7478197,0.09065409
2533,0.7412493,0.7478197,0.09065409
2535,0.7415132,0.7478197,0.09065409
2537,0.741777,0.7483428,0.09065409
2540,0.7420408,0.7480813,0.09278741
2542,0.7393991,0.7459858,0.09278741
2544,0.7393991,0.7459858,0.09278741
2547,0.7356848,0.7423044,0.09065409
2549,0.7356848,0.7423044,0.09065409
2551,0.7327532,0.7396637,0.09065409
2554,0.7300779,0.7370135,0.08846933
2556,0.7300779,0.7370135,0.08846933
2558,0.7292733,0.7364823,0.09065409
2562,0.7292733,0.7364823,0.09065409
2564,0.7257769,0.733287,0.09065409
2566,0.7246976,0.7324861,0.09065409
2569,0.7246976,0.7324861,0.09065409
2571,0.7252374,0.7327532,0.09278741
2573,0.7252374,0.7327532,0.09278741
2576,0.7255072,0.7324861,0.09278741
2578,0.7255072,0.7324861,0.09278741
2580,0.7233464,0.7306137,0.09278741
2583,0.7217214,0.7292733,0.09278741
2585,0.7217214,0.7292733,0.09278741
2587,0.721179,0.7281993,0.09278741
2590,0.721179,0.7281993,0.09278741
2592,0.719821,0.7273927,0.09487279
2594,0.7187329,0.7257769,0.09278741
2597,0.7187329,0.7257769,0.09278741
2599,0.7179157,0.7252374,0.09278741
2601,0.7179157,0.7252374,0.09278741
2605,0.7170975,0.7246976,0.09278741
2607,0.7170975,0.7246976,0.09278741
2609,0.7170975,0.7246976,0.09278741
2612,0.717643,0.7249676,0.09487279
2614,0.717643,0.7249676,0.09487279
2616,0.7181882,0.7255072,0.09278741
2619,0.7181882,0.7255072,0.09278741
2621,0.7195491,0.7265852,0.09278741
2623,0.7195491,0.7265852,0.09278741
2625,0.7200928,0.7271236,0.09278741
2628,0.7225344,0.7292733,0.09487279
2630,0.7225344,0.7292733,0.09487279
2632,0.7238871,0.7303458,0.09278741
2635,0.7238871,0.7303458,0.09278741
2637,0.7595032,0.7664279,0.08846933
2639,0.7765731,0.7835966,0.08622923
2642,0.7765731,0.7835966,0.08622923
2644,0.7825971,0.7893192,0.08846933
2647,0.7825971,0.7893192,0.08846933
2650,0.7878303,0.7945082,0.08622923
2652,0.7878303,0.7945082,0.08622923
2654,0.7850935,0.7915472,0.08846933
2657,0.7820969,0.7883269,0.08846933
2659,0.7820969,0.7883269,0.08846933
2661,0.7765731,0.7825971,0.09065409
2664,0.7765731,0.7825971,0.09065409
2666,0.7740492,0.7803435,0.09065409
2668,0.7699938,0.7763211,0.09065409
2671,0.7699938,0.7763211,0.09065409
2673,0.7684676,0.7745547,0.09065409
2675,0.7684676,0.7745547,0.09065409
2678,0.7666831,0.7727842,0.08846933
2680,0.7666831,0.7727842,0.08846933
2682,0.7646385,0.7710097,0.08846933
2685,0.7638705,0.7699938,0.09065409
2688,0.7638705,0.7699938,0.09065409
2690,0.7641266,0.7707559,0.09065409
2693,0.7641266,0.7707559,0.09065409
2695,0.7930291,0.8006416,0.08392937
2697,0.8134917,0.8218675,0.07912937
2700,0.8134917,0.8218675,0.07912937
2702,0.8035691,0.8118062,0.07912937
2704,0.8035691,0.8118062,0.07912937
2707,0.8001527,0.8086666,0.07661668
2709,0.8001527,0.8086666,0.07661668
2711,0.7930291,0.8016186,0.07912937
2713,0.7870849,0.7954926,0.07912937
2716,0.7870849,0.7954926,0.07912937
2718,0.7780834,0.7863387,0.08156469
2720,0.7780834,0.7863387,0.08156469
2723,0.7730374,0.7810954,0.08156469
2725,0.7730374,0.7810954,0.08156469
2727,0.7753122,0.7835966,0.07912937
2731,0.7773286,0.7850935,0.07912937
2733,0.7773286,0.7850935,0.07912937
2735,0.7818466,0.7900625,0.08156469
2738,0.7818466,0.7900625,0.08156469
2740,0.7888232,0.7967216,0.08156469
2742,0.7860898,0.7937689,0.08156469
2745,0.7860898,0.7937689,0.08156469
2747,0.7815963,0.7895671,0.08156469
2749,0.7815963,0.7895671,0.08156469
2752,0.7775803,0.7853427,0.08392937
2754,0.7775803,0.7853427,0.08392937
2756,0.7755645,0.7840959,0.08392937
2759,0.7760689,0.7840959,0.08156469
2761,0.7760689,0.7840959,0.08156469
2763,0.7773286,0.7853427,0.08392937
2766,0.7773286,0.7853427,0.08392937
2768,0.7783349,0.7868362,0.08392937
2770,0.7793398,0.7873334,0.08392937
2774,0.7793398,0.7873334,0.08392937
2776,0.7798419,0.7883269,0.08392937
2778,0.7798419,0.7883269,0.08392937
2781,0.7803435,0.7888232,0.08156469
2783,0.7803435,0.7888232,0.08156469
2785,0.7813459,0.7895671,0.08392937
2788,0.7820969,0.7903101,0.08156469
2790,0.7820969,0.7903101,0.08156469
2792,0.7773286,0.7855918,0.08156469
2794,0.7773286,0.7855918,0.08156469
2797,0.7697397,0.7780834,0.08392937
2799,0.7643827,0.7727842,0.08392937
2801,0.7643827,0.7727842,0.08392937
2804,0.7564052,0.7651502,0.08156469
2806,0.7564052,0.7651502,0.08156469
2808,0.7517344,0.760533,0.08392937
2811,0.7517344,0.760533,0.08392937
2813,0.745461,0.7540734,0.08622923
2816,0.7399282,0.7486043,0.08392937
2819,0.7399282,0.7486043,0.08392937
2821,0.7354187,0.7446731,0.08622923
2823,0.7354187,0.7446731,0.08622923
2826,0.7340872,0.7428315,0.08392937
2828,0.7340872,0.7428315,0.08392937
2830,0.7491269,0.7569224,0.08622923
2833,0.7592455,0.7666831,0.08846933
2835,0.7592455,0.7666831,0.08846933
2837,0.7720242,0.7795909,0.08846933
2840,0.7720242,0.7795909,0.08846933
2842,0.7760689,0.7833468,0.09065409
2844,0.7748073,0.7818466,0.08846933
2847,0.7748073,0.7818466,0.08846933
2849,0.7717707,0.7783349,0.09065409
2851,0.7717707,0.7783349,0.09065409
2854,0.7682129,0.774302,0.09278741
2856,0.7682129,0.774302,0.09278741
2859,0.7674484,0.7732905,0.09487279
2862,0.7636142,0.7694854,0.09487279
2864,0.7636142,0.7694854,0.09487279
2866,0.762332,0.7679582,0.09691329
2869,0.762332,0.7679582,0.09691329
2871,0.7579558,0.7636142,0.09691329
2873,0.7548515,0.7610474,0.09487279
2876,0.7548515,0.7610474,0.09487279
2878,0.7530347,0.758472,0.09487279
2880,0.7530347,0.758472,0.09487279
2882,0.7525149,0.7579558,0.09691329
2885,0.7525149,0.7579558,0.09691329
2887,0.7501709,0.7558876,0.09487279
2889,0.7486043,0.7548515,0.09487279
2892,0.7486043,0.7548515,0.09487279
2894,0.7480813,0.7548515,0.09278741
2896,0.7480813,0.7548515,0.09278741
2899,0.7483428,0.7553698,0.09065409
2902,0.7483428,0.7553698,0.09065409
2904,0.747558,0.7540734,0.09065409
2907,0.7472962,0.7540734,0.09065409
2909,0.7472962,0.7540734,0.09065409
2911,0.7465102,0.7540734,0.09065409
2914,0.7465102,0.7540734,0.09065409
2916,0.7459858,0.7535542,0.09065409
2918,0.7433581,0.7506924,0.08846933
2921,0.7433581,0.7506924,0.08846933
2923,0.7420408,0.7491269,0.08622923
2925,0.7420408,0.7491269,0.08622923
2928,0.7441474,0.7512136,0.08622923
2930,0.7441474,0.7512136,0.08622923
2932,0.7457234,0.7530347,0.08622923
2935,0.7457234,0.7530347,0.08622923
2937,0.7457234,0.7530347,0.08622923
2939,0.7457234,0.7530347,0.08622923
2942,0.7457234,0.7530347,0.08622923
2945,0.7483428,0.7551107,0.08622923
2947,0.7501709,0.7561465,0.08846933
2950,0.7501709,0.7561465,0.08846933
2952,0.7689767,0.7755645,0.08392937
2954,0.7689767,0.7755645,0.08392937
2957,0.7962303,0.8035691,0.08156469
2959,0.7962303,0.8035691,0.08156469
2961,0.7954926,0.8021067,0.08156469
2964,0.7954926,0.8021067,0.08622923
2966,0.7954926,0.8021067,0.08622923
2968,0.7885751,0.7950006,0.08846933
2970,0.7885751,0.7950006,0.08846933
2973,0.7865875,0.7925354,0.09065409
2975,0.7828471,0.7885751,0.09487279
2977,0.7828471,0.7885751,0.09487279
2980,0.7805943,0.7860898,0.09487279
2982,0.7805943,0.7860898,0.09487279
2984,0.7793398,0.7843454,0.09487279
2988,0.7793398,0.7843454,0.09487279
2990,0.7788376,0.7838463,0.1008706
2992,0.7760689,0.7803435,0.1027921
2995,0.7760689,0.7803435,0.1027921
2997,0.7748073,0.7795909,0.1027921
2999,0.7748073,0.7795909,0.1027921
3002,0.7732905,0.7775803,0.1065312
3004,0.7732905,0.7775803,0.1065312
3006,0.7717707,0.7760689,0.1065312
3009,0.7720242,0.7765731,0.1083524
3011,0.7720242,0.7765731,0.1083524
3013,0.7737964,0.7785863,0.1046783
3016,0.7737964,0.7785863,0.1046783
3018,0.7735435,0.7778319,0.1046783
3020,0.7735435,0.7783349,0.1046783
3023,0.7735435,0.7783349,0.1046783
3025,0.7745547,0.7788376,0.1046783
3027,0.7745547,0.7788376,0.1046783
3031,0.7753122,0.7803435,0.1027921
3033,0.7753122,0.7803435,0.1027921
3035,0.776825,0.7810954,0.1046783
3038,0.7775803,0.782347,0.1083524
3040,0.7775803,0.782347,0.1083524
3042,0.7773286,0.782347,0.1083524
3045,0.7773286,0.782347,0.1083524
3047,0.7775803,0.782347,0.1065312
3049,0.7753122,0.7803435,0.1065312
3052,0.7753122,0.7803435,0.1065312
3054,0.7720242,0.7770769,0.1046783
3056,0.7720242,0.7770769,0.1046783
3058,0.7677034,0.7727842,0.1046783
3061,0.7677034,0.7727842,0.1046783
3063,0.7633579,0.7687222,0.1027921
3065,0.7620752,0.7674484,0.1008706
3068,0.7620752,0.7674484,0.1008706
3070,0.7576976,0.7638705,0.1008706
3073,0.7576976,0.7638705,0.1008706
3076,0.7548515,0.7615615,0.09891172
3078,0.7548515,0.7615615,0.09891172
3080,0.7532945,0.7595032,0.09891172
3083,0.7483428,0.7551107,0.09691329
3085,0.7483428,0.7551107,0.09691329
3087,0.7430948,0.7499101,0.09691329
3090,0.7430948,0.7499101,0.09691329
3092,0.7409853,0.7483428,0.09487279
3094,0.7364823,0.7438844,0.09487279
3097,0.7364823,0.7438844,0.09487279
3099,0.733287,0.7415132,0.09278741
3101,0.733287,0.7415132,0.09278741
3104,0.7319516,0.7404569,0.09487279
3106,0.7319516,0.7404569,0.09487279
3108,0.7370135,0.745461,0.09278741
3111,0.7444103,0.7535542,0.09278741
3113,0.7444103,0.7535542,0.09278741
3116,0.7478197,0.7561465,0.09278741
3119,0.7478197,0.7561465,0.09278741
3121,0.7449358,0.7535542,0.09278741
3123,0.7430948,0.7517344,0.09278741
3126,0.7430948,0.7517344,0.09278741
3128,0.7512136,0.7600183,0.09278741
3130,0.7512136,0.7600183,0.09278741
3133,0.7561465,0.7648944,0.09065409
3135,0.7561465,0.7648944,0.09065409
3137,0.7558876,0.7646385,0.09065409
3140,0.7615615,0.7699938,0.09487279
3142,0.7615615,0.7699938,0.09487279
3144,0.7659171,0.7740492,0.09487279
3146,0.7659171,0.7740492,0.09487279
3149,0.7720242,0.7798419,0.09278741
3151,0.7815963,0.7888232,0.09487279
3153,0.7815963,0.7888232,0.09487279
3156,0.7915472,0.7977034,0.09691329
3159,0.7915472,0.7977034,0.09691329
3161,0.7981939,0.8047857,0.09487279
3164,0.7981939,0.8047857,0.09487279
3166,0.8025945,0.8093922,0.09487279
3168,0.8118062,0.8182884,0.09487279
3171,0.8118062,0.8182884,0.09487279
3173,0.8151737,0.8216294,0.09691329
3175,0.8151737,0.8216294,0.09691329
3178,0.82377,0.8301588,0.09891172
3180,0.82377,0.8301588,0.09891172
3182,0.829923,0.8355626,0.09891172
3185,0.8353283,0.8402332,0.09891172
3187,0.8353283,0.8402332,0.09891172
3189,0.8388348,0.8432553,0.1008706
3192,0.8388348,0.8432553,0.1008706
3194,0.8437192,0.8481144,0.1008706
3196,0.8451096,0.8497278,0.09891172
3200,0.8451096,0.8497278,0.09891172
3202,0.8467289,0.8511084,0.09891172
3204,0.8467289,0.8511084,0.09891172
3207,0.847191,0.8511084,0.09691329
3209,0.847191,0.8511084,0.09691329
3211,0.8462666,0.8508785,0.09691329
3214,0.845804,0.8504184,0.09891172
3216,0.845804,0.8504184,0.09891172
3218,0.8395343,0.8439512,0.09691329
3221,0.8395343,0.8439512,0.09691329
3223,0.8301588,0.8353283,0.09691329
3225,0.8306301,0.8357967,0.09691329
3228,0.8306301,0.8357967,0.09691329
3230,0.8360308,0.8406988,0.09487279
3232,0.8360308,0.8406988,0.09487279
3234,0.8235324,0.8280347,0.09691329
3237,0.8235324,0.8280347,0.09691329
3239,0.8144533,0.8192443,0.09691329
3241,0.804056,0.8091505,0.09487279
3245,0.804056,0.8091505,0.09487279
3247,0.8001527,0.8055148,0.09487279
3249,0.8001527,0.8055148,0.09487279
3252,0.7915472,0.7972127,0.09278741
3254,0.7838463,0.7895671,0.09487279
3256,0.7838463,0.7895671,0.09487279
3259,0.7785863,0.7840959,0.09487279
3261,0.7785863,0.7840959,0.09487279
3263,0.7750598,0.7810954,0.09487279
3266,0.7750598,0.7810954,0.09487279
3268,0.7735435,0.7790887,0.09278741
3270,0.7707559,0.776825,0.09487279
3273,0.7707559,0.776825,0.09487279
3275,0.7687222,0.7748073,0.09487279
3277,0.7687222,0.7748073,0.09487279
3280,0.7687222,0.7745547,0.09487279
3282,0.7687222,0.7745547,0.09487279
3284,0.7679582,0.7732905,0.09487279
3288,0.7669383,0.772531,0.09487279
3290,0.7669383,0.772531,0.09487279
3292,0.7659171,0.7715172,0.09487279
3295,0.7659171,0.7715172,0.09487279
3297,0.7638705,0.7697397,0.09487279
3299,0.7633579,0.7694854,0.09487279
3302,0.7633579,0.7694854,0.09487279
3304,0.7638705,0.7697397,0.09691329
3306,0.7638705,0.7697397,0.09691329
3309,0.7638705,0.7694854,0.09487279
3311,0.7638705,0.7694854,0.09487279
3313,0.7682129,0.7737964,0.09691329
3316,0.7712635,0.776825,0.09691329
3318,0.7712635,0.776825,0.09691329
3320,0.7722777,0.7775803,0.09487279
3322,0.7722777,0.7775803,0.09487279
3325,0.7740492,0.7790887,0.09487279
3328,0.7758168,0.7810954,0.09691329
3330,0.7758168,0.7810954,0.09691329
3333,0.7773286,0.7825971,0.09691329
3335,0.7773286,0.7825971,0.09691329
3337,0.7780834,0.7835966,0.09691329
3340,0.7780834,0.7835966,0.09691329
3342,0.7795909,0.7850935,0.09487279
3344,0.7808449,0.7858408,0.09691329
3347,0.7810954,0.7863387,0.09691329
3349,0.7820969,0.7868362,0.09691329
3351,0.7820969,0.7868362,0.09691329
3354,0.7793398,0.7843454,0.09891172
3356,0.7793398,0.7843454,0.09891172
3358,0.7773286,0.782347,0.1008706
3361,0.7800927,0.7850935,0.1008706
3363,0.7800927,0.7850935,0.1008706
3365,0.7820969,0.7865875,0.1008706
3368,0.7820969,0.7865875,0.1008706
3371,0.7848442,0.7895671,0.09891172
3373,0.7860898,0.7905577,0.09891172
3376,0.7860898,0.7905577,0.09891172
3378,0.7885751,0.7930291,0.09891172
3380,0.7885751,0.7930291,0.09891172
3383,0.7900625,0.7942618,0.09891172
3385,0.7900625,0.7942618,0.09891172
3387,0.7898148,0.7942618,0.09891172
3390,0.7898148,0.7940154,0.09891172
3392,0.7898148,0.7940154,0.09891172
3394,0.7917944,0.7954926,0.1008706
3397,0.7917944,0.7954926,0.1008706
3399,0.7925354,0.7962303,0.1027921
3401,0.7925354,0.7957386,0.1027921
3403,0.7925354,0.7957386,0.1027921
3406,0.7922885,0.7950006,0.1027921
3408,0.7922885,0.7950006,0.1027921
3410,0.7957386,0.7981939,0.1046783
3414,0.7957386,0.7981939,0.1046783
3416,0.798439,0.8001527,0.1065312
3418,0.8003972,0.8018627,0.1083524
3421,0.8003972,0.8018627,0.1083524
3423,0.8011303,0.8023506,0.1119058
3425,0.8011303,0.8023506,0.1119058
3428,0.8025945,0.8033255,0.1101434
3430,0.8038125,0.8045425,0.1119058
3432,0.8038125,0.8045425,0.1119058
3435,0.8050289,0.8052719,0.1153499
3437,0.8050289,0.8052719,0.1153499
3439,0.8057577,0.8055148,0.1170339
3442,0.8057577,0.8055148,0.1170339
3444,0.800886,0.8011303,0.1153499
3446,0.7977034,0.7981939,0.1153499
3449,0.7977034,0.7981939,0.1153499
3451,0.7972127,0.7977034,0.1170339
3453,0.7972127,0.7977034,0.1170339
3457,0.7957386,0.7959845,0.1170339
3459,0.7957386,0.7959845,0.1170339
3461,0.7947544,0.7950006,0.1153499
3464,0.7935224,0.7942618,0.1153499
3466,0.7935224,0.7942618,0.1153499
3468,0.796476,0.7972127,0.1170339
3471,0.796476,0.7972127,0.1170339
3473,0.798439,0.798929,0.1153499
3475,0.798929,0.7994187,0.1153499
3478,0.798929,0.7994187,0.1153499
3480,0.7994187,0.8001527,0.1153499
3482,0.7994187,0.8001527,0.1153499
3485,0.7991739,0.7999081,0.1153499
3487,0.7991739,0.7999081,0.1153499
3489,0.798684,0.798929,0.1136409
3491,0.7996635,0.8003972,0.1153499
3494,0.7996635,0.8003972,0.1153499
3496,0.8006416,0.8013745,0.1153499
3499,0.8006416,0.8013745,0.1153499
3502,0.8013745,0.8025945,0.1136409
3504,0.8018627,0.8028382,0.1136409
3506,0.8018627,0.8028382,0.1136409
3509,0.8086666,0.8103587,0.1101434
3511,0.8086666,0.8103587,0.1101434
3513,0.8182884,0.8199606,0.1083524
3516,0.8182884,0.8199606,0.1083524
3518,0.8275619,0.829923,0.1083524
3520,0.8322775,0.8348597,0.1065312
3523,0.8364988,0.8388348,0.1065312
3525,0.8409316,0.8434873,0.1065312
3527,0.8409316,0.8434873,0.1065312
3530,0.8474219,0.8499581,0.1046783
3532,0.8474219,0.8499581,0.1046783
3534,0.8527163,0.8559229,0.1008706
3537,0.8572935,0.8604831,0.1008706
3539,0.8572935,0.8604831,0.1008706
3542,0.8602557,0.8632076,0.1027921
3545,0.8602557,0.8632076,0.1027921
3547,0.8609378,0.8641139,0.09891172
3549,0.8609378,0.8641139,0.09891172
3552,0.8609378,0.8641139,0.09891172
3554,0.8609378,0.8641139,0.09891172
3556,0.8609378,0.8641139,0.09891172
3559,0.861165,0.8645667,0.1008706
3561,0.861165,0.8645667,0.1008706
3563,0.8616194,0.8645667,0.1008706
3566,0.8620735,0.8652454,0.1008706
3568,0.8620735,0.8652454,0.1008706
3570,0.8638874,0.8672784,0.1008706
3573,0.8638874,0.8672784,0.1008706
3575,0.8650193,0.8688563,0.09891172
3577,0.8663754,0.8697567,0.1008706
3579,0.8663754,0.8697567,0.1008706
3582,0.867504,0.8711056,0.1008706
3585,0.867504,0.8711056,0.1008706
3587,0.8686311,0.8720036,0.1008706
3590,0.8686311,0.8720036,0.1008706
3592,0.8688563,0.8724523,0.09891172
3594,0.8593453,0.8623004,0.1027921
3597,0.8593453,0.8623004,0.1027921
3599,0.8527163,0.8554656,0.1027921
3601,0.8527163,0.8554656,0.1027921
3604,0.8485757,0.8515682,0.1008706
3606,0.8423266,0.8448781,0.1046783
3608,0.8374339,0.8400003,0.1046783
3611,0.8332174,0.8355626,0.1046783
3613,0.8332174,0.8355626,0.1046783
3615,0.8266156,0.8287433,0.1065312
3618,0.8266156,0.8287433,0.1065312
3620,0.8230571,0.8244823,0.1083524
3622,0.8206762,0.8221055,0.1083524
3625,0.8206762,0.8221055,0.1083524
3628,0.8197219,0.8209146,0.1083524
3630,0.8197219,0.8209146,0.1083524
3633,0.8182884,0.8190054,0.1101434
3635,0.8182884,0.8190054,0.1101434
3637,0.81781,0.8187665,0.1136409
3640,0.81781,0.8182884,0.1153499
3642,0.81781,0.8182884,0.1153499
3644,0.8194832,0.8194832,0.1153499
3647,0.8194832,0.8194832,0.1153499
3649,0.8206762,0.8206762,0.1170339
3651,0.8211529,0.8211529,0.1170339
3654,0.8211529,0.8211529,0.1170339
3656,0.8216294,0.8216294,0.1186941
3658,0.8216294,0.8216294,0.1186941
3661,0.8187665,0.8185275,0.1203313
3663,0.8187665,0.8185275,0.1203313
3665,0.8170919,0.8166127,0.1219466
3667,0.8168523,0.8163731,0.1203313
3671,0.8168523,0.8163731,0.1203313
3673,0.8166127,0.8156537,0.1186941
3675,0.8166127,0.8156537,0.1186941
3678,0.8170919,0.8163731,0.1186941
3680,0.81781,0.8168523,0.1186941
3682,0.81781,0.8168523,0.1186941
3685,0.8204377,0.8194832,0.1186941
3687,0.8204377,0.8194832,0.1186941
3689,0.8223435,0.8211529,0.1186941
3692,0.8223435,0.8211529,0.1186941
3694,0.8218675,0.8206762,0.1186941
3696,0.8211529,0.8197219,0.1186941
3699,0.8211529,0.8197219,0.1186941
3701,0.8204377,0.8187665,0.1186941
3703,0.8204377,0.8187665,0.1186941
3706,0.8190054,0.8180492,0.1186941
3708,0.8185275,0.8170919,0.1170339
3710,0.8185275,0.8170919,0.1170339
3714,0.8180492,0.8163731,0.1186941
3716,0.8180492,0.8163731,0.1186941
3718,0.8211529,0.8192443,0.1186941
3721,0.8211529,0.8192443,0.1186941
3723,0.8259051,0.8230571,0.1186941
3725,0.8292154,0.8256681,0.1219466
3728,0.8292154,0.8256681,0.1219466
3730,0.8322775,0.8285072,0.1251145
3732,0.8322775,0.8285072,0.1251145
3735,0.8357967,0.8308656,0.1251145
3737,0.8357967,0.8308656,0.1251145
3739,0.8376676,0.8327476,0.1235407
3742,0.839068,0.8343908,0.1235407
3744,0.839068,0.8343908,0.1235407
3746,0.8393012,0.8348597,0.1235407
3749,0.8393012,0.8348597,0.1235407
3751,0.8388348,0.8341562,0.1203313
3753,0.8374339,0.8329825,0.1170339
3756,0.8374339,0.8329825,0.1170339
3759,0.8353283,0.8311011,0.1170339
3761,0.8353283,0.8311011,0.1170339
3763,0.8339216,0.829923,0.1170339
3766,0.8339216,0.829923,0.1170339
3768,0.8315719,0.8275619,0.1153499
3770,0.8292154,0.8254311,0.1153499
3773,0.8292154,0.8254311,0.1153499
3775,0.8280347,0.8242449,0.1170339
3777,0.8280347,0.8242449,0.1170339
3780,0.829923,0.8259051,0.1170339
3782,0.8303944,0.8266156,0.1153499
3784,0.8303944,0.8266156,0.1153499
3787,0.8301588,0.8266156,0.1119058
3789,0.8301588,0.8266156,0.1119058
3791,0.8296872,0.8263788,0.1119058
3794,0.8296872,0.8263788,0.1119058
3796,0.8292154,0.826142,0.1101434
3799,0.8275619,0.8242449,0.1119058
3802,0.8275619,0.8242449,0.1119058
3804,0.825194,0.8218675,0.1153499
3806,0.825194,0.8218675,0.1153499
3809,0.8242449,0.8206762,0.1136409
3811,0.8242449,0.8206762,0.1136409
3813,0.8216294,0.8182884,0.1170339
3816,0.8197219,0.8166127,0.1170339
3818,0.8197219,0.8166127,0.1170339
3820,0.8185275,0.8154138,0.1203313
3823,0.8185275,0.8154138,0.1203313
3825,0.8180492,0.8139727,0.1219466
3827,0.8204377,0.8166127,0.1203313
3830,0.8204377,0.8166127,0.1203313
3832,0.8211529,0.8170919,0.1219466
3834,0.8211529,0.8170919,0.1219466
3837,0.8211529,0.8170919,0.1203313
3840,0.8211529,0.8170919,0.1203313
3842,0.8211529,0.8170919,0.1219466
3844,0.8228193,0.8185275,0.1235407
3847,0.8228193,0.8185275,0.1235407
3849,0.8240075,0.8194832,0.1251145
3851,0.8240075,0.8194832,0.1251145
3854,0.8397673,0.8353283,0.1251145
3856,0.8451096,0.840466,0.1251145
3858,0.8451096,0.840466,0.1251145
3861,0.8494976,0.8446465,0.1266688
3863,0.8494976,0.8446465,0.1266688
3865,0.8524867,0.8474219,0.1282043
3868,0.8524867,0.8474219,0.1282043
3870,0.8634343,0.8591176,0.1282043
3872,0.8711056,0.8663754,0.1297215
3875,0.8711056,0.8663754,0.1297215
3877,0.8771496,0.872228,0.1282043
3879,0.8771496,0.872228,0.1282043
3883,0.8855863,0.8809339,0.1297215
3885,0.8930672,0.8884541,0.1297215
3887,0.8930672,0.8884541,0.1297215
3890,0.8952556,0.8910931,0.1282043
3892,0.8952556,0.8910931,0.1282043
3894,0.9013549,0.8972207,0.1282043
3897,0.9013549,0.8972207,0.1282043
3899,0.9052542,0.9009206,0.1297215
3901,0.9054703,0.9011378,0.1282043
3904,0.9054703,0.9011378,0.1282043
3906,0.9059024,0.901572,0.1282043
3908,0.9059024,0.901572,0.1282043
3911,0.9039564,0.9000514,0.1235407
3913,0.9039564,0.9000514,0.1235407
3915,0.90309,0.8991814,0.1219466
3918,0.9061184,0.902006,0.1219466
3920,0.9061184,0.902006,0.1219466
3922,0.9071976,0.9028733,0.1203313
3926,0.9071976,0.9028733,0.1203313
3928,0.9071976,0.9028733,0.1203313
3930,0.9065502,0.9022229,0.1203313
3932,0.9065502,0.9022229,0.1203313
3935,0.8956926,0.8910931,0.1219466
3937,0.8956926,0.8910931,0.1219466
3939,0.8886743,0.8838168,0.1219466
3942,0.8886743,0.8838168,0.1219466
3944,0.872228,0.8670527,0.1235407
3946,0.8661495,0.8613922,0.1235407
3949,0.8661495,0.8613922,0.1235407
3951,0.8522572,0.8474219,0.1219466
3953,0.8522572,0.8474219,0.1219466
3956,0.8388348,0.8341562,0.1219466
3958,0.8285072,0.82377,0.1219466
3960,0.8285072,0.82377,0.1219466
3963,0.8201992,0.8156537,0.1203313
3965,0.8201992,0.8156537,0.1203313
3968,0.8213912,0.8168523,0.1219466
3971,0.8213912,0.8168523,0.1219466
3973,0.8273254,0.8223435,0.1235407
3975,0.8218675,0.8168523,0.1235407
3978,0.8218675,0.8168523,0.1235407
3980,0.8194832,0.8149337,0.1219466
3982,0.8194832,0.8149337,0.1219466
3985,0.8146936,0.8098756,0.1219466
3987,0.8103587,0.8050289,0.1235407
3989,0.8103587,0.8050289,0.1235407
3992,0.8076981,0.8023506,0.1235407
3994,0.8076981,0.8023506,0.1235407
3996,0.8060005,0.8006416,0.1251145
3999,0.8060005,0.8006416,0.1251145
4001,0.8042993,0.7981939,0.1251145
4003,0.800886,0.7950006,0.1251145
4006,0.800886,0.7937689,0.1251145
4008,0.798684,0.7927822,0.1251145
4011,0.798684,0.7927822,0.1251145
4013,0.7994187,0.7935224,0.1251145
4016,0.7994187,0.7935224,0.1251145
4018,0.798684,0.7930291,0.1235407
4020,0.7977034,0.7922885,0.1219466
4023,0.7977034,0.7922885,0.1219466
4025,0.8011303,0.7957386,0.1235407
4027,0.8011303,0.7957386,0.1235407
4030,0.804056,0.798439,0.1219466
4032,0.8081825,0.8021067,0.1235407
4034,0.8081825,0.8021067,0.1235407
4037,0.8175707,0.8115651,0.1251145
4039,0.8175707,0.8115651,0.1251145
4041,0.8228193,0.8168523,0.1235407
4044,0.8228193,0.8168523,0.1235407
4046,0.826142,0.8199606,0.1251145
4048,0.8270888,0.8213912,0.1251145
4051,0.8270888,0.8213912,0.1251145
4054,0.826142,0.8201992,0.1251145
4056,0.826142,0.8201992,0.1251145
4059,0.8254311,0.8194832,0.1266688
4061,0.8263788,0.8204377,0.1282043
4063,0.8263788,0.8204377,0.1282043
4066,0.8287433,0.8228193,0.1282043
4068,0.8287433,0.8228193,0.1282043
4070,0.8313365,0.825194,0.1282043
4073,0.8313365,0.825194,0.1282043
4075,0.8336869,0.8277984,0.1282043
4077,0.8348597,0.8294513,0.1282043
4080,0.8348597,0.8294513,0.1282043
4082,0.8367326,0.8313365,0.1282043
4084,0.8367326,0.8313365,0.1282043
4087,0.8383681,0.8327476,0.1266688
4089,0.8383681,0.8327476,0.1266688
4091,0.8395343,0.8339216,0.1282043
4094,0.8386015,0.8336869,0.1251145
4097,0.8386015,0.8336869,0.1251145
4099,0.8367326,0.8320423,0.1251145
4101,0.8367326,0.8320423,0.1251145
4104,0.8353283,0.8308656,0.1251145
4106,0.8336869,0.8289794,0.1219466
4108,0.8336869,0.8289794,0.1219466
4111,0.8303944,0.8259051,0.1235407
4113,0.8303944,0.8259051,0.1235407
4115,0.8280347,0.8235324,0.1219466
4118,0.8280347,0.8235324,0.1219466
4120,0.8247196,0.8201992,0.1186941
4122,0.8221055,0.8182884,0.1153499
4125,0.8221055,0.8182884,0.1153499
4127,0.8211529,0.8170919,0.1153499
4129,0.8211529,0.8170919,0.1153499
4132,0.8209146,0.8168523,0.1153499
4134,0.8221055,0.81781,0.1153499
4136,0.8221055,0.81781,0.1153499
4140,0.8223435,0.8182884,0.1153499
4142,0.8223435,0.8182884,0.1153499
4144,0.8223435,0.8182884,0.1153499
4147,0.8223435,0.8182884,0.1153499
4149,0.8225815,0.8185275,0.1153499
4151,0.8192443,0.8154138,0.1136409
4154,0.8192443,0.8154138,0.1136409
4156,0.8146936,0.8118062,0.1136409
4158,0.8146936,0.8118062,0.1136409
4161,0.8144533,0.8120472,0.1083524
4163,0.8144533,0.8120472,0.1083524
4165,0.8144533,0.8120472,0.1083524
4168,0.8130105,0.8108415,0.1065312
4170,0.8130105,0.8108415,0.1065312
4172,0.811324,0.8101172,0.1046783
4175,0.811324,0.8101172,0.1046783
4177,0.811324,0.8101172,0.1046783
4179,0.8086666,0.8076981,0.1027921
4183,0.8086666,0.8076981,0.1027921
4185,0.8028382,0.8025945,0.1027921
4187,0.8028382,0.8025945,0.1027921
4189,0.7972127,0.7979487,0.09891172
4192,0.7972127,0.7979487,0.09891172
4194,0.7942618,0.7957386,0.09891172
4196,0.7925354,0.7947544,0.09691329
4199,0.7925354,0.7947544,0.09691329
4201,0.7937689,0.7959845,0.09891172
4203,0.7937689,0.7959845,0.09891172
4206,0.7957386,0.7977034,0.09691329
4208,0.7972127,0.798929,0.09891172
4210,0.7972127,0.798929,0.09891172
4213,0.7977034,0.7996635,0.1008706
4215,0.7977034,0.7996635,0.1008706
4217,0.798929,0.800886,0.09891172
4220,0.798929,0.800886,0.09891172
4222,0.8006416,0.8025945,0.1027921
4225,0.8098756,0.8115651,0.1008706
4228,0.8098756,0.8115651,0.1008706
4230,0.8218675,0.8240075,0.1008706
4232,0.8218675,0.8240075,0.1008706
4235,0.8235324,0.8256681,0.1008706
4237,0.826142,0.8277984,0.1008706
4239,0.826142,0.8277984,0.1008706
4242,0.8336869,0.8355626,0.1027921
4244,0.8336869,0.8355626,0.1027921
4246,0.8432553,0.8451096,0.1027921
4249,0.8432553,0.8451096,0.1027921
4251,0.8464977,0.848345,0.1008706
4253,0.8434873,0.8451096,0.1065312
4256,0.8434873,0.8451096,0.1065312
4258,0.8416294,0.8430232,0.1101434
4260,0.8416294,0.8430232,0.1101434
4263,0.8411642,0.8416294,0.1119058
4265,0.8411642,0.8416294,0.1119058
4268,0.845804,0.8462666,0.1136409
4271,0.8534044,0.8538629,0.1119058
4273,0.8534044,0.8538629,0.1119058
4275,0.8531751,0.8531751,0.1153499
4277,0.8531751,0.8531751,0.1153499
4280,0.8506485,0.8504184,0.1170339
4282,0.8467289,0.8467289,0.1186941
4284,0.8467289,0.8467289,0.1186941
4287,0.8568369,0.85638,0.1203313
4289,0.8568369,0.85638,0.1203313
4291,0.8627541,0.8620735,0.1219466
4294,0.8627541,0.8620735,0.1219466
4296,0.8656976,0.8654715,0.1219466
4298,0.8699816,0.8690815,0.1219466
4301,0.8699816,0.8690815,0.1219466
4303,0.8726766,0.8713301,0.1219466
4305,0.8726766,0.8713301,0.1219466
4308,0.8746923,0.8731248,0.1219466
4311,0.8636609,0.8618464,0.1219466
4313,0.8636609,0.8618464,0.1219466
4316,0.8595729,0.858206,0.1219466
4318,0.8595729,0.858206,0.1219466
4320,0.8559229,0.8538629,0.1219466
4323,0.8559229,0.8538629,0.1219466
4325,0.8529457,0.8508785,0.1203313
4327,0.8444148,0.8418618,0.1203313
4330,0.8444148,0.8418618,0.1203313
4332,0.839068,0.8362648,0.1203313
4334,0.839068,0.8362648,0.1203313
4337,0.8374339,0.8346253,0.1186941
4339,0.835094,0.8318071,0.1186941
4341,0.835094,0.8318071,0.1186941
4344,0.8434873,0.8406988,0.1170339
4346,0.8434873,0.8406988,0.1170339
4348,0.8464977,0.8437192,0.1153499
4352,0.8464977,0.8437192,0.1153499
4354,0.8439512,0.8406988,0.1136409
4356,0.8418618,0.8388348,0.1119058
4359,0.8418618,0.8388348,0.1119058
4361,0.8362648,0.8336869,0.1136409
4363,0.8362648,0.8336869,0.1136409
4365,0.8329825,0.8301588,0.1136409
4368,0.8329825,0.8301588,0.1136409
4370,0.8315719,0.828271,0.1153499
4372,0.8308656,0.8280347,0.1153499
4375,0.8308656,0.8280347,0.1153499
4377,0.826142,0.82377,0.1119058
4379,0.826142,0.82377,0.1119058
4382,0.8228193,0.8209146,0.1083524
4384,0.8201992,0.8180492,0.1101434
4386,0.8201992,0.8180492,0.1101434
4389,0.8180492,0.8161334,0.1101434
4391,0.8180492,0.8161334,0.1101434
4393,0.8137322,0.8115651,0.1083524
4397,0.8137322,0.8115651,0.1083524
4399,0.8118062,0.8101172,0.1083524
4401,0.8122882,0.8103587,0.1083524
4404,0.8122882,0.8103587,0.1083524
4406,0.8120472,0.8103587,0.1083524
4408,0.8120472,0.8103587,0.1083524
4411,0.8134917,0.8120472,0.1083524
4413,0.8144533,0.8127698,0.1083524
4415,0.8144533,0.8127698,0.1083524
4418,0.8139727,0.812529,0.1083524
4420,0.8139727,0.812529,0.1083524
4422,0.8139727,0.8122882,0.1083524
4425,0.8139727,0.8122882,0.1083524
4427,0.8151737,0.8134917,0.1101434
4429,0.8168523,0.8151737,0.1101434
4432,0.8168523,0.8151737,0.1101434
4434,0.8173313,0.8156537,0.1101434
4436,0.8173313,0.8156537,0.1101434
4440,0.8170919,0.8154138,0.1119058
4442,0.8197219,0.81781,0.1119058
4444,0.8197219,0.81781,0.1119058
4447,0.8209146,0.8187665,0.1119058
4449,0.8209146,0.8187665,0.1119058
4451,0.8199606,0.8185275,0.1119058
4453,0.8199606,0.8185275,0.1119058
4456,0.8175707,0.8168523,0.1119058
4458,0.8166127,0.8158936,0.1136409
4460,0.8166127,0.8158936,0.1136409
4463,0.8166127,0.8154138,0.1136409
4465,0.8166127,0.8154138,0.1136409
4467,0.8154138,0.814213,0.1136409
4470,0.8154138,0.814213,0.1136409
4472,0.8127698,0.8122882,0.1153499
4474,0.8118062,0.8110828,0.1170339
4477,0.8118062,0.8110828,0.1170339
4480,0.8096339,0.8091505,0.1153499
4482,0.8096339,0.8091505,0.1153499
4485,0.8103587,0.8098756,0.1136409
4487,0.8122882,0.8118062,0.1153499
4489,0.8122882,0.8118062,0.1153499
4492,0.8130105,0.8127698,0.1136409
4494,0.8130105,0.8127698,0.1136409
4496,0.814213,0.8134917,0.1153499
4499,0.814213,0.8134917,0.1153499
4501,0.8151737,0.8146936,0.1170339
4503,0.8166127,0.8161334,0.1170339
4506,0.8166127,0.8161334,0.1170339
4508,0.8170919,0.8168523,0.1170339
4510,0.8170919,0.8168523,0.1170339
4513,0.81781,0.8170919,0.1186941
4515,0.8182884,0.8175707,0.1186941
4517,0.8182884,0.8175707,0.1186941
4520,0.8163731,0.8161334,0.1203313
4523,0.8163731,0.8161334,0.1203313
4525,0.8156537,0.8151737,0.1219466
4528,0.8156537,0.8151737,0.1219466
4530,0.8156537,0.8146936,0.1219466
4532,0.8154138,0.8146936,0.1219466
4535,0.8161334,0.8154138,0.1219466
4537,0.8173313,0.8163731,0.1219466
4539,0.8173313,0.8163731,0.1219466
4541,0.8173313,0.8170919,0.1235407
4544,0.8173313,0.8170919,0.1235407
4546,0.8209146,0.8204377,0.1219466
4548,0.8223435,0.8223435,0.1203313
4551,0.8223435,0.8223435,0.1203313
4553,0.8228193,0.8232948,0.1203313
4555,0.8228193,0.8232948,0.1203313
4558,0.8223435,0.8230571,0.1203313
4560,0.8216294,0.8228193,0.1186941
4562,0.8216294,0.8228193,0.1186941
4566,0.8211529,0.8223435,0.1170339
4568,0.8211529,0.8223435,0.1170339
4570,0.8187665,0.8206762,0.1153499
4573,0.8187665,0.8206762,0.1153499
4575,0.8175707,0.8199606,0.1136409
4577,0.8166127,0.8185275,0.1153499
4580,0.8166127,0.8185275,0.1153499
4582,0.8154138,0.8185275,0.1136409
4584,0.8154138,0.8185275,0.1136409
4587,0.8144533,0.8173313,0.1119058
4589,0.8151737,0.8185275,0.1101434
4591,0.8151737,0.8185275,0.1101434
4594,0.8161334,0.8194832,0.1101434
4596,0.8161334,0.8194832,0.1101434
4598,0.8173313,0.8209146,0.1101434
4601,0.8173313,0.8209146,0.1101434
4603,0.8277984,0.8313365,0.1083524
4605,0.8341562,0.8381346,0.1065312
4609,0.8341562,0.8381346,0.1065312
4611,0.8329825,0.8367326,0.1065312
4613,0.8329825,0.8367326,0.1065312
4616,0.8311011,0.835094,0.1065312
4618,0.8367326,0.8406988,0.1065312
4620,0.8367326,0.8406988,0.1065312
4622,0.8402332,0.8446465,0.1046783
4625,0.8402332,0.8446465,0.1046783
4627,0.8439512,0.8481144,0.1027921
4629,0.847191,0.8511084,0.1046783
4632,0.8494976,0.8534044,0.1046783
4634,0.8481144,0.8513383,0.1046783
4636,0.8481144,0.8513383,0.1046783
4639,0.8434873,0.8464977,0.1046783
4641,0.8434873,0.8464977,0.1046783
4643,0.8430232,0.8460353,0.1065312
4646,0.8430232,0.8460353,0.1065312
4648,0.8451096,0.8481144,0.1065312
4651,0.8411642,0.8439512,0.1065312
4654,0.8411642,0.8439512,0.1065312
4656,0.8353283,0.8383681,0.1083524
4658,0.8353283,0.8383681,0.1083524
4661,0.8397673,0.8430232,0.1083524
4663,0.8420942,0.8462666,0.1065312
4665,0.8420942,0.8462666,0.1065312
4668,0.8400003,0.8437192,0.1083524
4670,0.8400003,0.8437192,0.1083524
4672,0.839068,0.8430232,0.1083524
4675,0.8383681,0.8423266,0.1065312
4677,0.8364988,0.840466,0.1065312
4679,0.8341562,0.8379012,0.1083524
4682,0.8341562,0.8379012,0.1083524
4684,0.8393012,0.8430232,0.1065312
4686,0.8393012,0.8430232,0.1065312
4689,0.8478836,0.8522572,0.1065312
4691,0.8504184,0.8547791,0.1046783
4694,0.8504184,0.8547791,0.1046783
4697,0.8492672,0.8538629,0.1046783
4699,0.8492672,0.8538629,0.1046783
4701,0.8451096,0.8494976,0.1046783
4704,0.8451096,0.8494976,0.1046783
4706,0.8434873,0.8478836,0.1046783
4708,0.8395343,0.8439512,0.1065312
4710,0.8395343,0.8439512,0.1065312
4713,0.8360308,0.8402332,0.1046783
4715,0.8360308,0.8402332,0.1046783
4717,0.8332174,0.8372003,0.1065312
4720,0.8308656,0.8348597,0.1046783
4722,0.8308656,0.8348597,0.1046783
4724,0.8289794,0.8329825,0.1046783
4727,0.8289794,0.8329825,0.1046783
4729,0.8275619,0.8311011,0.1065312
4731,0.8275619,0.8311011,0.1065312
4734,0.8254311,0.8287433,0.1101434
4737,0.8242449,0.8275619,0.1101434
4739,0.8240075,0.8268523,0.1101434
4742,0.8211529,0.8242449,0.1119058
4744,0.8211529,0.8242449,0.1119058
4746,0.8173313,0.8204377,0.1119058
4749,0.8173313,0.8204377,0.1119058
4751,0.8166127,0.8190054,0.1136409
4753,0.8170919,0.8190054,0.1153499
4756,0.8170919,0.8190054,0.1153499
4758,0.8182884,0.8194832,0.1136409
4760,0.8182884,0.8194832,0.1136409
4763,0.8199606,0.8199606,0.1136409
4765,0.8180492,0.8180492,0.1119058
4767,0.8180492,0.8180492,0.1119058
4770,0.8161334,0.8158936,0.1119058
4772,0.8161334,0.8158936,0.1119058
4774,0.8132511,0.8130105,0.1136409
4777,0.8132511,0.8130105,0.1136409
4780,0.8161334,0.8151737,0.1101434
4782,0.8192443,0.8173313,0.1136409
4785,0.8192443,0.8173313,0.1136409
4787,0.8209146,0.8185275,0.1119058
4789,0.8209146,0.8185275,0.1119058
4792,0.8228193,0.8201992,0.1136409
4794,0.8221055,0.8192443,0.1119058
4796,0.8221055,0.8192443,0.1119058
4798,0.8218675,0.8187665,0.1136409
4801,0.8218675,0.8187665,0.1136409
4803,0.8228193,0.8192443,0.1136409
4805,0.8228193,0.8192443,0.1136409
4808,0.8228193,0.8192443,0.1136409
4810,0.8228193,0.8192443,0.1136409
4812,0.8228193,0.8192443,0.1136409
4815,0.8204377,0.8170919,0.1136409
4817,0.8204377,0.8170919,0.1136409
4819,0.8185275,0.8151737,0.1119058
4823,0.8185275,0.8151737,0.1119058
4825,0.8180492,0.8146936,0.1119058
4827,0.8180492,0.8151737,0.1119058
4830,0.8180492,0.8151737,0.1119058
4832,0.8182884,0.8154138,0.1101434
4834,0.8182884,0.8154138,0.1101434
4837,0.81781,0.8149337,0.1119058
4839,0.81781,0.8149337,0.1119058
4841,0.81781,0.8149337,0.1119058
4844,0.8163731,0.8139727,0.1101434
4846,0.8163731,0.8139727,0.1101434
4848,0.8154138,0.8132511,0.1119058
4851,0.8154138,0.8132511,0.1119058
4853,0.8343908,0.8327476,0.1083524
4855,0.8623004,0.8618464,0.1046783
4858,0.8623004,0.8618464,0.1046783
4860,0.8620735,0.8613922,0.1027921
4862,0.8620735,0.8613922,0.1027921
4866,0.8625273,0.8620735,0.1046783
4868,0.8566085,0.8561515,0.1065312
4870,0.8566085,0.8561515,0.1065312
4873,0.8547791,0.854092,0.1065312
4875,0.8547791,0.854092,0.1065312
4877,0.8462666,0.845804,0.1083524
4880,0.8462666,0.845804,0.1083524
4882,0.8416294,0.8406988,0.1101434
4884,0.8369665,0.8357967,0.1101434
4886,0.8369665,0.8357967,0.1101434
4889,0.8343908,0.8336869,0.1083524
4891,0.8343908,0.8336869,0.1083524
4893,0.8339216,0.8332174,0.1101434
4896,0.8339216,0.8334522,0.1101434
4898,0.8339216,0.8334522,0.1101434
4900,0.8343908,0.8336869,0.1083524
4903,0.8348597,0.8339216,0.1083524
4905,0.8353283,0.8346253,0.1101434
4908,0.8353283,0.8346253,0.1101434
4911,0.8343908,0.8341562,0.1065312
4913,0.8325126,0.8327476,0.1065312
4915,0.8325126,0.8327476,0.1065312
4918,0.8313365,0.8313365,0.1065312
4920,0.8313365,0.8313365,0.1065312
4922,0.8301588,0.8301588,0.1065312
4925,0.8301588,0.8301588,0.1065312
4927,0.8303944,0.8306301,0.1046783
4929,0.8303944,0.8306301,0.1065312
4932,0.8303944,0.8306301,0.1065312
4934,0.8296872,0.8296872,0.1046783
4936,0.8296872,0.8296872,0.1046783
4939,0.828271,0.828271,0.1065312
4941,0.8263788,0.826142,0.1065312
4943,0.8263788,0.826142,0.1065312
4946,0.8256681,0.8254311,0.1065312
4948,0.8256681,0.8254311,0.1065312
4951,0.8228193,0.8225815,0.1065312
4954,0.8228193,0.8225815,0.1065312
4956,0.8197219,0.8194832,0.1046783
4958,0.8180492,0.81781,0.1065312
4961,0.8180492,0.81781,0.1065312
4963,0.8175707,0.8173313,0.1065312
4965,0.8175707,0.8173313,0.1065312
4968,0.8263788,0.8259051,0.1065312
4970,0.8395343,0.839068,0.1065312
4972,0.8395343,0.839068,0.1065312
4974,0.8434873,0.8432553,0.1083524
4977,0.8434873,0.8432553,0.1083524
4979,0.8430232,0.8423266,0.1065312
4981,0.8430232,0.8423266,0.1065312
4984,0.842791,0.8425589,0.1083524
4986,0.8506485,0.8501883,0.1083524
4988,0.8506485,0.8501883,0.1083524
4992,0.858206,0.857978,0.1083524
4994,0.858206,0.857978,0.1083524
4996,0.8650193,0.8650193,0.1083524
4999,0.8650193,0.8650193,0.1083524
5001,0.8715547,0.8717791,0.1065312
5003,0.8749159,0.8753631,0.1065312
5006,0.8749159,0.8753631,0.1065312
5008,0.8800449,0.8798226,0.1083524
5010,0.8800449,0.8798226,0.1083524
5013,0.8833739,0.8833739,0.1046783
5015,0.8855863,0.8858072,0.1046783
5017,0.8855863,0.8858072,0.1046783
5020,0.8873522,0.8873522,0.1046783
5022,0.8873522,0.8873522,0.1046783
5024,0.8880135,0.8886743,0.1027921
5027,0.8880135,0.8886743,0.1027921
5029,0.8884541,0.8888945,0.1027921
5031,0.8888945,0.8893346,0.1046783
5035,0.8888945,0.8893346,0.1046783
5037,0.8880135,0.8884541,0.1027921
5039,0.8880135,0.8884541,0.1027921
5042,0.8882338,0.8886743,0.1027921
5044,0.8893346,0.8895546,0.1027921
5046,0.8893346,0.8895546,0.1027921
5049,0.8908735,0.8908735,0.1027921
5051,0.8908735,0.8908735,0.1027921
5053,0.8924097,0.8921905,0.1046783
5056,0.8924097,0.8921905,0.1046783
5058,0.892629,0.8928481,0.1046783
5060,0.8833739,0.8833739,0.1065312
5062,0.8833739,0.8833739,0.1065312
5065,0.8773727,0.8771496,0.1083524
5067,0.8773727,0.8771496,0.1083524
5069,0.8778186,0.8773727,0.1083524
5072,0.8780415,0.8775957,0.1083524
5074,0.8780415,0.8775957,0.1083524
5076,0.8706562,0.8699816,0.1101434
5080,0.8706562,0.8699816,0.1101434
5082,0.8699816,0.8688563,0.1101434
5084,0.8699816,0.8688563,0.1101434
5087,0.8726766,0.8715547,0.1101434
5089,0.8737969,0.8729007,0.1101434
5091,0.8737969,0.8729007,0.1101434
5094,0.8695317,0.8684058,0.1119058
5096,0.8695317,0.8684058,0.1119058
5098,0.8666012,0.8654715,0.1119058
5101,0.8666012,0.8654715,0.1119058
5103,0.8609378,0.8595729,0.1153499
5105,0.8568369,0.8556943,0.1136409
5108,0.8568369,0.8556943,0.1136409
5110,0.8534044,0.8515682,0.1170339
5112,0.8534044,0.8515682,0.1170339
5115,0.8524867,0.8506485,0.1170339
5117,0.8488063,0.8462666,0.1170339
5120,0.8488063,0.8462666,0.1170339
5123,0.8448781,0.8425589,0.1186941
5125,0.8448781,0.8425589,0.1186941
5127,0.8425589,0.8409316,0.1170339
5130,0.8425589,0.8409316,0.1170339
5132,0.8418618,0.8400003,0.1170339
5134,0.8406988,0.839068,0.1170339
5137,0.8406988,0.839068,0.1170339
5139,0.8400003,0.8383681,0.1186941
5141,0.8400003,0.8383681,0.1186941
5144,0.8402332,0.8383681,0.1186941
5146,0.8406988,0.8388348,0.1170339
5148,0.8406988,0.8388348,0.1170339
5150,0.8413968,0.8395343,0.1170339
5153,0.8413968,0.8395343,0.1170339
5155,0.8413968,0.8397673,0.1136409
5157,0.8413968,0.8397673,0.1136409
5160,0.8402332,0.8388348,0.1153499
5163,0.8386015,0.8372003,0.1136409
5165,0.8386015,0.8372003,0.1136409
5168,0.8372003,0.8357967,0.1136409
5170,0.8372003,0.8357967,0.1136409
5172,0.8357967,0.8346253,0.1119058
5175,0.8348597,0.8336869,0.1101434
5177,0.8348597,0.8336869,0.1101434
5179,0.8339216,0.8332174,0.1083524
5182,0.8339216,0.8332174,0.1083524
5184,0.8327476,0.8322775,0.1083524
5186,0.8327476,0.8322775,0.1083524
5189,0.8311011,0.8303944,0.1083524
5191,0.8301588,0.829923,0.1065312
5193,0.8301588,0.829923,0.1065312
5196,0.8292154,0.8294513,0.1065312
5198,0.8292154,0.8294513,0.1065312
5200,0.8292154,0.8296872,0.1046783
5203,0.8292154,0.8296872,0.1046783
5206,0.8296872,0.8301588,0.1065312
5208,0.8292154,0.8296872,0.1046783
5211,0.8292154,0.8296872,0.1046783
5213,0.8287433,0.8289794,0.1065312
5215,0.8287433,0.8289794,0.1065312
5218,0.828271,0.8287433,0.1046783
5220,0.8287433,0.8287433,0.1046783
5222,0.8287433,0.8287433,0.1046783
5225,0.829923,0.8303944,0.1065312
5227,0.829923,0.8303944,0.1065312
5229,0.8315719,0.8318071,0.1065312
5231,0.8315719,0.8318071,0.1065312
5234,0.8336869,0.8336869,0.1065312
5236,0.8346253,0.8346253,0.1065312
5238,0.8346253,0.8346253,0.1065312
5241,0.8374339,0.8369665,0.1083524
5243,0.8374339,0.8369665,0.1083524
5245,0.8393012,0.8386015,0.1101434
5249,0.8409316,0.8406988,0.1101434
5251,0.8409316,0.8406988,0.1101434
5253,0.8430232,0.8420942,0.1119058
5256,0.8430232,0.8420942,0.1119058
5258,0.8439512,0.8430232,0.1136409
5260,0.8439512,0.8430232,0.1136409
5263,0.8451096,0.8437192,0.1136409
5265,0.8455727,0.844183,0.1136409
5267,0.8455727,0.844183,0.1136409
5270,0.847191,0.845804,0.1153499
5272,0.847191,0.845804,0.1153499
5274,0.8485757,0.8469599,0.1170339
5277,0.8485757,0.8469599,0.1170339
5279,0.8506485,0.8488063,0.1170339
5281,0.8520276,0.8499581,0.1170339
5284,0.8520276,0.8499581,0.1170339
5286,0.8527163,0.8508785,0.1186941
5288,0.8527163,0.8508785,0.1186941
5292,0.8545501,0.8527163,0.1186941
5294,0.8556943,0.8534044,0.1186941
5296,0.8556943,0.8534044,0.1186941
5299,0.8570652,0.8547791,0.1203313
5301,0.8570652,0.8547791,0.1203313
5303,0.858206,0.8561515,0.1186941
5306,0.858206,0.8561515,0.1186941
5308,0.8586619,0.8566085,0.1186941
5310,0.8591176,0.8568369,0.1186941
5313,0.8591176,0.8568369,0.1186941
5315,0.8593453,0.8570652,0.1186941
5317,0.8593453,0.8570652,0.1186941
5319,0.8595729,0.8575217,0.1186941
5322,0.8598006,0.8577499,0.1186941
5324,0.8598006,0.8577499,0.1186941
5326,0.861165,0.8586619,0.1203313
5329,0.861165,0.8586619,0.1203313
5331,0.8618464,0.8593453,0.1203313
5334,0.8618464,0.8593453,0.1203313
5337,0.8620735,0.8595729,0.1219466
5339,0.8623004,0.8600281,0.1203313
5341,0.8623004,0.8600281,0.1203313
5344,0.8681804,0.8652454,0.1203313
5346,0.8681804,0.8652454,0.1203313
5348,0.8758101,0.873573,0.1186941
5351,0.8755867,0.8731248,0.1170339
5353,0.8755867,0.8731248,0.1170339
5355,0.8755867,0.873349,0.1186941
5358,0.8755867,0.873349,0.1186941
5360,0.8840382,0.8822656,0.1153499
5362,0.8840382,0.8822656,0.1153499
5365,0.8897746,0.8877931,0.1153499
5367,0.8853652,0.8833739,0.1170339
5369,0.8853652,0.8833739,0.1170339
5372,0.8842595,0.8816,0.1170339
5374,0.8842595,0.8816,0.1170339
5377,0.8866904,0.8844808,0.1170339
5380,0.8866904,0.8844808,0.1170339
5382,0.8919711,0.8899944,0.1153499
5384,0.8985283,0.8963478,0.1153499
5387,0.8985283,0.8963478,0.1153499
5389,0.9043891,0.90309,0.1136409
5391,0.9043891,0.90309,0.1136409
5394,0.8987461,0.8978747,0.1119058
5396,0.8965662,0.8959111,0.1136409
5398,0.8965662,0.8959111,0.1136409
5401,0.8980926,0.8974388,0.1101434
5403,0.8980926,0.8974388,0.1101434
5405,0.9026566,0.902006,0.1083524
5407,0.9026566,0.902006,0.1083524
5410,0.9007034,0.9004862,0.1101434
5412,0.8956926,0.8954742,0.1083524
5414,0.8956926,0.8954742,0.1083524
5417,0.8875727,0.8877931,0.1065312
5420,0.8875727,0.8877931,0.1065312
5422,0.8824874,0.8822656,0.1065312
5425,0.8787099,0.8791551,0.1065312
5427,0.8787099,0.8791551,0.1065312
5429,0.873573,0.873573,0.1065312
5432,0.873573,0.873573,0.1065312
5434,0.8695317,0.8693066,0.1065312
5436,0.8695317,0.8693066,0.1065312
5439,0.8695317,0.8693066,0.1065312
5441,0.8740209,0.8742447,0.1065312
5443,0.8740209,0.8742447,0.1065312
5446,0.8775957,0.8778186,0.1046783
5448,0.8775957,0.8778186,0.1046783
5450,0.8802673,0.8802673,0.1065312
5453,0.8802673,0.8802673,0.1065312
5455,0.8798226,0.8796002,0.1083524
5457,0.8787099,0.8780415,0.1083524
5460,0.8787099,0.8780415,0.1083524
5463,0.8775957,0.8771496,0.1083524
5465,0.8775957,0.8771496,0.1083524
5468,0.8762568,0.8749159,0.1119058
5470,0.8744686,0.873573,0.1119058
5472,0.8744686,0.873573,0.1119058
5475,0.8802673,0.8789325,0.1136409
5477,0.8802673,0.8789325,0.1136409
5479,0.8893346,0.8880135,0.1119058
5482,0.8893346,0.8880135,0.1119058
5484,0.8893346,0.8877931,0.1136409
5486,0.8895546,0.8880135,0.1153499
5489,0.8895546,0.8880135,0.1153499
5491,0.8880135,0.8862489,0.1170339
5493,0.8880135,0.8862489,0.1170339
5495,0.8860281,0.8838168,0.1153499
5498,0.8842595,0.8820438,0.1170339
5500,0.8842595,0.8820438,0.1170339
5502,0.8816,0.8796002,0.1170339
5506,0.8816,0.8796002,0.1170339
5508,0.8816,0.8798226,0.1170339
5510,0.8816,0.8798226,0.1170339
5513,0.8824874,0.8804895,0.1170339
5515,0.8835954,0.8816,0.1170339
5517,0.8835954,0.8816,0.1170339
5520,0.8853652,0.8833739,0.1170339
5522,0.8853652,0.8833739,0.1170339
5524,0.8871316,0.884702,0.1170339
5527,0.8884541,0.8864697,0.1170339
5529,0.8884541,0.8864697,0.1170339
5531,0.8884541,0.8864697,0.1153499
5534,0.8884541,0.8864697,0.1153499
5536,0.8880135,0.8860281,0.1170339
5538,0.8880135,0.8860281,0.1170339
5541,0.8871316,0.8853652,0.1153499
5543,0.8851442,0.8833739,0.1153499
5545,0.8851442,0.8833739,0.1153499
5549,0.8840382,0.8822656,0.1153499
5551,0.8840382,0.8822656,0.1153499
5553,0.8824874,0.8802673,0.1153499
5556,0.8824874,0.8802673,0.1153499
5558,0.8800449,0.8784871,0.1136409
5560,0.8789325,0.8773727,0.1136409
5563,0.8789325,0.8773727,0.1136409
5565,0.8771496,0.8751395,0.1136409
5567,0.8771496,0.8751395,0.1136409
5570,0.8767033,0.8740209,0.1170339
5572,0.8760335,0.8740209,0.1170339
5574,0.8760335,0.8740209,0.1170339
5577,0.8740209,0.8715547,0.1170339
5579,0.8740209,0.8715547,0.1170339
5581,0.873349,0.8706562,0.1186941
5583,0.873349,0.8706562,0.1186941
5586,0.8742447,0.8711056,0.1186941
5588,0.8744686,0.8713301,0.1203313
5591,0.8744686,0.8713301,0.1203313
5594,0.8724523,0.8688563,0.1235407
5596,0.8724523,0.8688563,0.1235407
5598,0.8713301,0.8672784,0.1251145
5601,0.8713301,0.867504,0.1251145
5603,0.8713301,0.867504,0.1251145
5605,0.8717791,0.8670527,0.1282043
5608,0.8717791,0.8670527,0.1282043
5610,0.8693066,0.8643403,0.1282043
5612,0.8693066,0.8643403,0.1282043
5615,0.867504,0.8627541,0.1282043
5617,0.8661495,0.8616194,0.1282043
5619,0.8661495,0.8616194,0.1282043
5622,0.8661495,0.861165,0.1297215
5624,0.8661495,0.861165,0.1297215
5626,0.8661495,0.8616194,0.1282043
5629,0.8661495,0.8616194,0.1297215
5632,0.8661495,0.8616194,0.1297215
5634,0.8638874,0.8598006,0.1266688
5637,0.8618464,0.858206,0.1282043
5639,0.8607104,0.8568369,0.1266688
5641,0.8607104,0.8568369,0.1266688
5644,0.8604831,0.8568369,0.1266688
5646,0.8620735,0.858206,0.1266688
5648,0.8620735,0.858206,0.1266688
5651,0.8623004,0.8586619,0.1251145
5653,0.8623004,0.8586619,0.1251145
5655,0.8618464,0.8588898,0.1235407
5658,0.8618464,0.8588898,0.1235407
5660,0.8632076,0.8598006,0.1235407
5662,0.8650193,0.8618464,0.1235407
5665,0.8650193,0.8618464,0.1235407
5667,0.8659236,0.8636609,0.1203313
5669,0.8659236,0.8636609,0.1203313
5671,0.866827,0.8643403,0.1203313
5675,0.8666012,0.8641139,0.1186941
5677,0.8666012,0.8641139,0.1186941
5679,0.8666012,0.8638874,0.1203313
5682,0.8666012,0.8638874,0.1203313
5684,0.8672784,0.8650193,0.1186941
5686,0.8672784,0.8650193,0.1186941
5689,0.8686311,0.8661495,0.1203313
5691,0.872228,0.8697567,0.1186941
5693,0.872228,0.8697567,0.1186941
5696,0.8746923,0.8724523,0.1186941
5698,0.8746923,0.8724523,0.1186941
5700,0.8771496,0.8746923,0.1203313
5703,0.8804895,0.8782644,0.1186941
5705,0.8804895,0.8782644,0.1186941
5707,0.8833739,0.881156,0.1186941
5710,0.8833739,0.881156,0.1186941
5712,0.8855863,0.8838168,0.1186941
5714,0.8855863,0.8838168,0.1186941
5718,0.8864697,0.884702,0.1170339
5720,0.9024397,0.9007034,0.1170339
5722,0.9024397,0.9007034,0.1170339
5725,0.9157847,0.9140738,0.1153499
5727,0.9157847,0.9140738,0.1153499
5729,0.9268292,0.9253501,0.1153499
5732,0.9268292,0.9253501,0.1153499
5734,0.9291486,0.9276733,0.1136409
5736,0.9268292,0.9255615,0.1136409
5739,0.9268292,0.9255615,0.1136409
5741,0.9242921,0.923233,0.1136409
5743,0.9242921,0.923233,0.1136409
5746,0.923233,0.9221727,0.1136409
5748,0.9211111,0.9196228,0.1136409
5750,0.9211111,0.9196228,0.1136409
5753,0.9189842,0.9172792,0.1153499
5755,0.9189842,0.9172792,0.1153499
5757,0.9164255,0.9147157,0.1153499
5760,0.9164255,0.9147157,0.1153499
5763,0.9136455,0.9115012,0.1186941
5765,0.9121451,0.9099972,0.1186941
5767,0.9121451,0.9099972,0.1186941
5770,0.9115012,0.9093519,0.1186941
5772,0.9115012,0.9093519,0.1186941
5774,0.9112865,0.9089215,0.1203313
5777,0.9093519,0.9069818,0.1203313
5779,0.9093519,0.9069818,0.1203313
5781,0.9082754,0.9056864,0.1203313
5784,0.9082754,0.9056864,0.1203313
5786,0.9065502,0.9037398,0.1203313
5788,0.9065502,0.9037398,0.1203313
5791,0.9054703,0.9026566,0.1219466
5793,0.9054703,0.9026566,0.1219466
5795,0.9054703,0.9026566,0.1219466
5798,0.9052542,0.9024397,0.1203313
5800,0.9052542,0.9024397,0.1203313
5803,0.9037398,0.9011378,0.1219466
5806,0.90309,0.9002688,0.1203313
5808,0.90309,0.9002688,0.1203313
5810,0.9026566,0.899834,0.1219466
5813,0.9026566,0.899834,0.1219466
5815,0.902006,0.8991814,0.1235407
5817,0.902006,0.8991814,0.1235407
5820,0.9022229,0.8991814,0.1235407
5822,0.9024397,0.899399,0.1219466
5824,0.9024397,0.899399,0.1219466
5827,0.9028733,0.899399,0.1235407
5829,0.9028733,0.899399,0.1235407
5831,0.9033066,0.9002688,0.1235407
5834,0.9033066,0.9002688,0.1235407
5836,0.9013549,0.8980926,0.1235407
5838,0.9004862,0.8976567,0.1235407
5840,0.9004862,0.8976567,0.1235407
5843,0.9022229,0.8989637,0.1235407
5846,0.9022229,0.8989637,0.1235407
5848,0.9035233,0.9000514,0.1219466
5851,0.9059024,0.9022229,0.1251145
5853,0.9059024,0.9022229,0.1251145
5855,0.9063343,0.9028733,0.1235407
5858,0.9063343,0.9028733,0.1235407
5860,0.9082754,0.9048218,0.1251145
5862,0.9082754,0.9048218,0.1251145
5865,0.9097822,0.9061184,0.1251145
5867,0.9106421,0.9071976,0.1251145
5869,0.9106421,0.9071976,0.1251145
5872,0.910857,0.9076288,0.1251145
5874,0.910857,0.9076288,0.1251145
5876,0.9119305,0.9082754,0.1251145
5879,0.913217,0.9095671,0.1251145
5881,0.913217,0.9095671,0.1251145
5883,0.9157847,0.9119305,0.1266688
5886,0.9157847,0.9119305,0.1266688
5889,0.9177057,0.9138597,0.1266688
5891,0.9177057,0.9138597,0.1266688
5894,0.9164255,0.9123595,0.1266688
5896,0.9155711,0.9117159,0.1266688
5898,0.9155711,0.9117159,0.1266688
5901,0.9155711,0.9117159,0.1266688
5903,0.9155711,0.9117159,0.1266688
5905,0.9159984,0.9119305,0.1282043
5908,0.9159984,0.9119305,0.1282043
5910,0.9177057,0.913217,0.1297215
5912,0.9198356,0.9151434,0.1312212
5915,0.9198356,0.9151434,0.1312212
5917,0.9217481,0.9170658,0.1312212
5919,0.9217481,0.9170658,0.1312212
5922,0.9234449,0.9187712,0.1312212
5924,0.9213235,0.9164255,0.132704
5926,0.9213235,0.9164255,0.132704
5928,0.920261,0.9157847,0.1312212
5932,0.920261,0.9157847,0.1312212
5934,0.916212,0.9115012,0.132704
5936,0.916212,0.9115012,0.132704
5939,0.9110718,0.9065502,0.132704
5941,0.9097822,0.9052542,0.132704
5943,0.9097822,0.9052542,0.132704
5946,0.9104272,0.9063343,0.1341704
5948,0.9104272,0.9063343,0.1341704
5950,0.9087062,0.9046055,0.1341704
5953,0.9061184,0.902006,0.1341704
5955,0.9061184,0.902006,0.1341704
5957,0.9035233,0.8991814,0.132704
5960,0.9035233,0.8991814,0.132704
5962,0.9009206,0.8967844,0.1341704
5964,0.9009206,0.8967844,0.1341704
5967,0.8980926,0.8943809,0.1341704
5969,0.8954742,0.8915322,0.1341704
5971,0.8954742,0.8915322,0.1341704
5975,0.8948184,0.8910931,0.1341704
5977,0.8948184,0.8910931,0.1341704
5979,0.8952556,0.8908735,0.1356209
5982,0.8954742,0.8915322,0.1341704
5984,0.8954742,0.8915322,0.1341704
5986,0.8952556,0.8915322,0.1341704
5989,0.8952556,0.8915322,0.1341704
5991,0.8959111,0.8921905,0.1341704
5993,0.8959111,0.8921905,0.1341704
5996,0.8959111,0.8921905,0.132704
5998,0.8945997,0.8910931,0.132704
6000,0.8945997,0.8910931,0.132704
6003,0.8928481,0.8893346,0.1312212
6005,0.8928481,0.8893346,0.1312212
6007,0.8945997,0.8910931,0.1312212
6010,0.8945997,0.8910931,0.1312212
6012,0.8963478,0.8930672,0.1312212
6014,0.8987461,0.8956926,0.1297215
6017,0.8987461,0.8956926,0.1297215
6020,0.9002688,0.8976567,0.1266688
6022,0.9002688,0.8976567,0.1266688
6024,0.9013549,0.8983104,0.1266688
6027,0.9071976,0.9043891,0.1251145
6029,0.9071976,0.9043891,0.1251145
6031,0.9110718,0.9082754,0.1251145
6034,0.9110718,0.9082754,0.1251145
6036,0.9061184,0.9037398,0.1251145
6038,0.9061184,0.9037398,0.1251145
6041,0.90309,0.9004862,0.1251145
6043,0.9037398,0.9011378,0.1251145
6045,0.9037398,0.9011378,0.1251145
6048,0.9037398,0.9013549,0.1219466
6050,0.9037398,0.9013549,0.1219466
6052,0.902006,0.8996165,0.1251145
6055,0.901572,0.8989637,0.1266688
6057,0.901572,0.8989637,0.1266688
6060,0.9041728,0.901789,0.1251145
6063,0.9041728,0.901789,0.1251145
6065,0.9061184,0.9035233,0.1251145
6067,0.9061184,0.9035233,0.1251145
6070,0.9035233,0.9004862,0.1282043
6072,0.901572,0.8985283,0.1297215
6074,0.901572,0.8985283,0.1297215
6077,0.9028733,0.899399,0.1297215
6079,0.9028733,0.899399,0.1297215
6081,0.9037398,0.9004862,0.1282043
6084,0.9037398,0.9004862,0.1282043
6086,0.9037398,0.9004862,0.1282043
6088,0.9078444,0.9046055,0.1297215
6091,0.9078444,0.9046055,0.1297215
6093,0.9080599,0.9046055,0.1297215
6095,0.9080599,0.9046055,0.1297215
6098,0.9084908,0.9048218,0.1297215
6100,0.9091367,0.9054703,0.1297215
6103,0.9091367,0.9054703,0.1297215
6105,0.9095671,0.9061184,0.1297215
6108,0.9095671,0.9061184,0.1297215
6110,0.9123595,0.9084908,0.132704
6112,0.9123595,0.9084908,0.132704
6115,0.9136455,0.9099972,0.1297215
6117,0.9084908,0.9043891,0.132704
6119,0.9084908,0.9043891,0.132704
6122,0.906766,0.9024397,0.132704
6124,0.906766,0.9024397,0.132704
6126,0.9050379,0.9009206,0.1341704
6129,0.9052542,0.9011378,0.1341704
6131,0.9052542,0.9011378,0.1341704
6133,0.9063343,0.901789,0.1370561
6136,0.9063343,0.901789,0.1370561
6138,0.9069818,0.9024397,0.1356209
6140,0.9069818,0.9024397,0.1356209
6144,0.9059024,0.9009206,0.1384764
6146,0.9037398,0.8985283,0.1398823
6148,0.9037398,0.8985283,0.1398823
6151,0.9028733,0.8978747,0.1412742
6153,0.9028733,0.8978747,0.1412742
6155,0.9024397,0.8970026,0.1412742
6158,0.9028733,0.8972207,0.1440177
6160,0.9028733,0.8972207,0.1440177
6162,0.9033066,0.8976567,0.1426525
6165,0.9033066,0.8976567,0.1426525
6167,0.9048218,0.8989637,0.14537
6169,0.9048218,0.8989637,0.14537
6172,0.9071976,0.9004862,0.1480375
6174,0.9174925,0.9106421,0.1480375
6176,0.9174925,0.9106421,0.1480375
6179,0.9211111,0.9147157,0.1480375
6181,0.9211111,0.9147157,0.1480375
6183,0.9297802,0.9234449,0.1493534
6187,0.9297802,0.9234449,0.1493534
6189,0.9379522,0.9314623,0.1480375
6191,0.9458466,0.939828,0.1480375
6193,0.9458466,0.939828,0.1480375
6196,0.9534706,0.9470872,0.1480375
6198,0.9534706,0.9470872,0.1480375
6200,0.9561348,0.9497693,0.14537
6203,0.9596078,0.953881,0.14537
6205,0.9596078,0.953881,0.14537
6207,0.962255,0.9561348,0.14537
6210,0.962255,0.9561348,0.14537
6212,0.9640834,0.9585876,0.14537
6214,0.9640834,0.9585876,0.14537
6217,0.9799869,0.9753835,0.1384764
6219,1.002296,0.9989719,0.1341704
6221,1.002296,0.9989719,0.1341704
6224,1.027744,1.025266,0.1282043
6226,1.027744,1.025266,0.1282043
6228,1.041738,1.040046,0.1235407
6232,1.063305,1.062568,0.1203313
6234,1.063305,1.062568,0.1203313
6236,1.08137,1.081008,0.1170339
6239,1.08137,1.081008,0.1170339
6241,1.077745,1.078653,0.1101434
6243,1.077745,1.078653,0.1101434
6246,1.063121,1.065694,0.09691329
6248,1.047919,1.051647,0.08622923
6250,1.047919,1.051647,0.08622923
6253,1.03967,1.044365,0.08156469
6255,1.03967,1.044365,0.08156469
6257,1.028125,1.033819,0.07401875
6260,1.016641,1.022782,0.0656106
6262,1.016641,1.022782,0.0656106
6264,1.009882,1.016448,0.05934703
6267,1.009882,1.016448,0.05934703
6269,1.002882,1.009688,0.05233916
6272,1.002882,1.009688,0.05233916
6275,0.998776,1.005999,0.05233916
6277,1.001906,1.009106,0.04423466
6279,1.001906,1.009106,0.04423466
6281,1.006971,1.014521,0.04423466
6284,1.006971,1.014521,0.04423466
6286,1.011431,1.019332,0.04423466
6288,1.011431,1.019332,0.04423466
6291,1.014714,1.02259,0.03956468
6293,1.021633,1.029266,0.03426402
6295,1.021633,1.029266,0.03426402
6298,1.02622,1.03363,0.03956468
6300,1.02622,1.03363,0.03956468
6302,1.009882,1.017603,0.03956468
6305,0.9853634,0.993472,0.03956468
6307,0.9853634,0.993472,0.03956468
6309,0.9749822,0.9825793,0.04423466
6312,0.9749822,0.9825793,0.04423466
6315,0.9673254,0.9747815,0.04423466
6317,0.9673254,0.9747815,0.04423466
6320,0.957362,0.9638805,0.0656106
6322,0.9501812,0.9557254,0.07661668
6324,0.9501812,0.9557254,0.07661668
6327,0.9454328,0.9495632,0.09278741
6329,0.9454328,0.9495632,0.09278741
6331,0.9412843,0.9450188,0.1008706
6334,0.9389946,0.9416999,0.1119058
6336,0.9389946,0.9416999,0.1119058
6338,0.9379522,0.939828,0.1170339
6341,0.9379522,0.939828,0.1170339
6343,0.9387863,0.9402443,0.1219466
6345,0.9387863,0.9402443,0.1219466
6348,0.9381608,0.9392031,0.1282043
6350,0.9400361,0.9404523,0.1341704
6352,0.9400361,0.9404523,0.1341704
6355,0.9406604,0.9402443,0.1384764
6358,0.9406604,0.9402443,0.1384764
6360,0.9408684,0.9404523,0.1398823
6363,0.9408684,0.9404523,0.1398823
6365,0.9406604,0.9406604,0.1426525
6367,0.9427382,0.9425307,0.1440177
6369,0.9427382,0.9425307,0.1440177
6372,0.9458466,0.9454328,0.14537
6374,0.9458466,0.9454328,0.14537
6376,0.9468806,0.9466738,0.14537
6379,0.9470872,0.9466738,0.14537
6381,0.9470872,0.9466738,0.14537
6383,0.9477068,0.9470872,0.1467098
6386,0.9477068,0.9470872,0.1467098
6388,0.9479132,0.9475003,0.14537
6390,0.9479132,0.9475003,0.14537
6393,0.9512104,0.9503872,0.1480375
6395,0.9553158,0.9544962,0.1480375
6397,0.9553158,0.9544962,0.1480375
6401,0.957975,0.957362,0.1493534
6403,0.957975,0.957362,0.1493534
6405,0.9596078,0.9585876,0.1493534
6408,0.9626616,0.962255,0.1493534
6410,0.9626616,0.962255,0.1493534
6412,0.9650977,0.9640834,0.1493534
6415,0.9650977,0.9640834,0.1493534
6417,0.9675278,0.9673254,0.1493534
6419,0.9675278,0.9673254,0.1493534
6422,0.9663135,0.9659084,0.1480375
6424,0.9640834,0.9636774,0.1480375
6426,0.9640834,0.9636774,0.1480375
6429,0.9618481,0.9612376,0.1480375
6431,0.9618481,0.9612376,0.1480375
6433,0.9589957,0.9583834,0.1467098
6436,0.9577706,0.9569532,0.14537
6438,0.9577706,0.9569532,0.14537
6440,0.9563395,0.9553158,0.14537
6444,0.9563395,0.9553158,0.14537
6446,0.9553158,0.953881,0.1440177
6448,0.9553158,0.953881,0.1440177
6450,0.9536759,0.9528548,0.1426525
6453,0.9524438,0.9512104,0.1412742
6455,0.9524438,0.9512104,0.1412742
6457,0.9544962,0.9532654,0.1412742
6460,0.9544962,0.9532654,0.1412742
6462,0.9583834,0.9567486,0.1398823
6464,0.9583834,0.9567486,0.1398823
6467,0.963068,0.9614412,0.1398823
6469,0.9657058,0.9638805,0.1384764
6471,0.9657058,0.9638805,0.1384764
6474,0.9693463,0.96773,0.1384764
6476,0.9693463,0.96773,0.1384764
6478,0.9683364,0.9661109,0.1384764
6481,0.9671232,0.9653005,0.1370561
6483,0.9671232,0.9653005,0.1370561
6486,0.9636774,0.9616448,0.1384764
6489,0.9636774,0.9616448,0.1384764
6491,0.9608305,0.9585876,0.1370561
6493,0.9608305,0.9585876,0.1370561
6496,0.9591998,0.9571576,0.1384764
6498,0.9565441,0.9542912,0.1384764
6500,0.9565441,0.9542912,0.1384764
6503,0.9540861,0.9518273,0.1398823
6505,0.9540861,0.9518273,0.1398823
6507,0.9526493,0.9501812,0.1384764
6510,0.9503872,0.9481196,0.1370561
6512,0.9503872,0.9481196,0.1370561
6514,0.9489449,0.9462603,0.1384764
6517,0.9489449,0.9462603,0.1384764
6519,0.9532654,0.9503872,0.1370561
6521,0.9532654,0.9503872,0.1370561
6524,0.9561348,0.9532654,0.1370561
6526,0.9571576,0.9544962,0.1370561
6529,0.9571576,0.9544962,0.1370561
6532,0.9589957,0.9563395,0.1370561
6534,0.9589957,0.9563395,0.1370561
6536,0.9851648,0.9809847,0.14537
6538,1.003272,0.997992,0.1506579
6541,1.003272,0.997992,0.1506579
6543,1.006971,1.000342,0.1607126
6545,1.006971,1.000342,0.1607126
6548,1.01317,1.004247,0.1735894
6550,1.01317,1.004247,0.1735894
6552,1.009882,0.997992,0.1876719
6555,1.008718,0.9946532,0.1958353
6557,1.008718,0.9946532,0.1958353
6559,0.993472,0.9771874,0.2055842
6562,0.993472,0.9771874,0.2055842
6564,0.9839723,0.9657058,0.2121421
6566,0.9839723,0.9657058,0.2121421
6569,0.9779881,0.9587917,0.2139789
6572,0.9695482,0.949151,0.2176059
6574,0.9695482,0.949151,0.2176059
6577,0.9628648,0.9414921,0.2220564
6579,0.9628648,0.9414921,0.2220564
6581,0.9587917,0.9362817,0.2246844
6584,0.9448116,0.9217481,0.2264194
6586,0.9448116,0.9217481,0.2264194
6588,0.9362817,0.912574,0.2289973
6591,0.9362817,0.912574,0.2289973
6593,0.9147157,0.8902143,0.2298502
6595,0.9147157,0.8902143,0.2298502
6598,0.906766,0.8820438,0.2298502
6600,0.9134313,0.8895546,0.2281412
6602,0.9134313,0.8895546,0.2281412
6605,0.9331415,0.9104272,0.2264194
6607,0.9331415,0.9104272,0.2264194
6609,0.9667184,0.9460534,0.2229358
6612,0.9907107,0.9709598,0.2211734
6615,0.9907107,0.9709598,0.2211734
6617,1.005026,0.9857605,0.2211734
6620,1.005026,0.9857605,0.2211734
6622,1.027554,1.008912,0.2211734
6624,1.027554,1.008912,0.2211734
6626,1.034197,1.016641,0.2167048
6629,1.037409,1.020291,0.2148914
6631,1.037409,1.020291,0.2148914
6633,1.043615,1.026982,0.2121421
6636,1.043615,1.026982,0.2121421
6638,1.0772,1.062752,0.2036718
6640,1.0772,1.062752,0.2036718
6643,1.085705,1.072102,0.1978235
6645,1.080103,1.067346,0.1938267
6647,1.080103,1.067346,0.1938267
6650,1.078471,1.066245,0.191797
6652,1.078471,1.066245,0.191797
6654,1.084081,1.073196,0.183454
6658,1.101096,1.092711,0.1678588
6660,1.101096,1.092711,0.1678588
6662,1.11995,1.113818,0.1545051
6665,1.11995,1.113818,0.1545051
6667,1.131077,1.126222,0.1440177
6669,1.131077,1.126222,0.1440177
6672,1.137288,1.133669,0.1370561
6674,1.140553,1.13746,0.132704
6676,1.140553,1.13746,0.132704
6679,1.139179,1.136772,0.1282043
6681,1.139179,1.136772,0.1282043
6683,1.126396,1.12431,0.1251145
6686,1.108711,1.106591,0.1251145
6688,1.108711,1.106591,0.1251145
6690,1.091636,1.089124,0.1251145
6693,1.091636,1.089124,0.1251145
6695,1.075928,1.073379,0.1266688
6697,1.075928,1.073379,0.1266688
6701,1.063489,1.06091,0.1282043
6703,1.058139,1.055362,0.1282043
6705,1.058139,1.055362,0.1282043
6708,1.051088,1.048292,0.1282043
6710,1.051088,1.048292,0.1282043
6712,1.036843,1.034008,0.1297215
6714,1.024884,1.021825,0.132704
6717,1.024884,1.021825,0.132704
6719,1.0151,1.012011,0.1341704
6721,1.0151,1.012011,0.1341704
6724,1.0151,1.012011,0.1341704
6726,1.0151,1.012011,0.1341704
6728,1.0151,1.012011,0.1341704
6731,1.010463,1.007165,0.1370561
6733,1.010463,1.007165,0.1370561
6735,1.006388,1.003272,0.1370561
6738,1.006388,1.003272,0.1370561
6740,1.006388,1.002687,0.1384764
6743,1.006388,1.002687,0.1384764
6746,1.00736,1.004052,0.1384764
6748,1.009494,1.005999,0.1370561
6750,1.009494,1.005999,0.1370561
6753,1.01317,1.0093,0.1384764
6755,1.01317,1.0093,0.1384764
6757,1.015678,1.011817,0.1384764
6760,1.013557,1.009688,0.1398823
6762,1.013557,1.009688,0.1398823
6764,1.014329,1.010075,0.1412742
6767,1.014329,1.010075,0.1412742
6769,1.015678,1.011044,0.1412742
6771,1.015678,1.011044,0.1412742
6774,1.017411,1.012977,0.1412742
6776,1.01317,1.008718,0.1440177
6778,1.01317,1.008718,0.1440177
6781,1.011044,1.005999,0.14537
6784,1.011044,1.005999,0.14537
6786,1.012784,1.007748,0.1440177
6789,1.014521,1.0093,0.14537
6791,1.014521,1.0093,0.14537
6793,1.013943,1.008718,0.1467098
6796,1.013943,1.008718,0.1467098
6798,1.013943,1.008525,0.1467098
6800,1.013943,1.008525,0.1467098
6802,1.017603,1.011624,0.1493534
6805,1.0201,1.013943,0.1506579
6807,1.0201,1.013943,0.1506579
6809,1.02259,1.016448,0.1493534
6812,1.02259,1.016448,0.1493534
6814,1.023738,1.017411,0.1493534
6816,1.023164,1.016833,0.1493534
6819,1.023164,1.016833,0.1493534
6821,1.021442,1.0151,0.1493534
6823,1.021442,1.0151,0.1493534
6827,1.024693,1.018372,0.1493534
6829,1.024693,1.018372,0.1493534
6831,1.026982,1.020867,0.1467098
6834,1.024311,1.01818,0.1480375
6836,1.024311,1.01818,0.1480375
6838,1.023355,1.017603,0.1493534
6841,1.023355,1.017603,0.1493534
6843,1.020291,1.014329,0.1493534
6845,1.020291,1.014329,0.1493534
6848,1.016833,1.01085,0.1493534
6850,1.010075,1.004052,0.1506579
6852,1.010075,1.004052,0.1506579
6855,1.002101,0.9960293,0.1506579
6857,1.002101,0.9960293,0.1506579
6859,0.9932752,0.9865541,0.1506579
6862,0.9905132,0.9837734,0.1519511
6864,0.9877436,0.9811842,0.1506579
6866,0.9803861,0.9735762,0.1493534
6870,0.9803861,0.9735762,0.1493534
6872,0.9699516,0.9634743,0.1506579
6874,0.9699516,0.9634743,0.1506579
6877,0.9608305,0.9540861,0.1493534
6879,0.9532654,0.9468806,0.1493534
6881,0.9532654,0.9468806,0.1493534
6884,0.9516218,0.9446045,0.1493534
6886,0.9516218,0.9446045,0.1493534
6888,0.9522384,0.9454328,0.1493534
6890,0.9536759,0.9470872,0.1493534
6893,0.9536759,0.9470872,0.1493534
6895,0.9559301,0.949151,0.1493534
6897,0.9559301,0.949151,0.1493534
6900,0.957362,0.9505931,0.1480375
6902,0.957362,0.9505931,0.1480375
6904,0.9536759,0.9470872,0.1467098
6907,0.9530601,0.9460534,0.1480375
6909,0.9530601,0.9460534,0.1480375
6912,0.953881,0.9470872,0.1467098
6915,0.953881,0.9470872,0.1467098
6917,0.955111,0.9487386,0.14537
6919,0.955111,0.9487386,0.14537
6922,0.9571576,0.9503872,0.14537
6924,0.9594038,0.9524438,0.14537
6926,0.9594038,0.9524438,0.14537
6929,0.960423,0.953881,0.1440177
6931,0.960423,0.953881,0.1440177
6933,0.9663135,0.9600154,0.14537
6936,0.9731742,0.9671232,0.1440177
6938,0.9731742,0.9671232,0.1440177
6940,0.978988,0.972772,0.14537
6943,0.978988,0.972772,0.14537
6945,0.9835745,0.9771874,0.14537
6947,0.9835745,0.9771874,0.14537
6950,0.9849661,0.978988,0.1440177
6952,0.9944565,0.9887336,0.1440177
6955,0.9944565,0.9887336,0.1440177
6958,1.000733,0.9952432,0.1440177
6960,1.000733,0.9952432,0.1440177
6962,1.006777,1.000929,0.1426525
6965,1.003077,0.9972074,0.1426525
6967,1.003077,0.9972074,0.1426525
6969,0.9940628,0.9883377,0.14537
6972,0.9940628,0.9883377,0.14537
6974,0.993866,0.9879416,0.14537
6976,0.993866,0.9879416,0.14537
6978,0.9981881,0.9918951,0.1467098
6981,0.9993636,0.9930781,0.14537
6983,0.9993636,0.9930781,0.14537
6985,0.9903157,0.9841712,0.1480375
6988,0.9903157,0.9841712,0.1480375
6990,0.98437,0.9781881,0.1493534
6992,0.9761857,0.9691444,0.1506579
6995,0.9761857,0.9691444,0.1506579
6998,0.9713628,0.9642863,0.1506579
7000,0.9713628,0.9642863,0.1506579
7003,0.9691444,0.962255,0.1519511
7005,0.9691444,0.962255,0.1519511
7007,0.9673254,0.9598116,0.1532334
7010,0.966516,0.9589957,0.1545051
7012,0.966516,0.9589957,0.1545051
7014,0.964895,0.9571576,0.1557664
7017,0.964895,0.9571576,0.1557664
7019,0.9749822,0.9671232,0.1582588
7021,0.9749822,0.9671232,0.1582588
7024,0.9809847,0.9729732,0.1594904
7026,0.9903157,0.9817823,0.1594904
7028,0.9903157,0.9817823,0.1594904
7031,0.9989719,0.9907107,0.1607126
7033,0.9989719,0.9907107,0.1607126
7035,1.003467,0.9952432,0.1607126
7038,1.010075,1.001515,0.1619255
7041,1.010075,1.001515,0.1619255
7043,1.020291,1.011817,0.1594904
7046,1.020291,1.011817,0.1594904
7048,1.02641,1.01818,0.1570175
7050,1.02641,1.01818,0.1570175
7053,1.013557,1.005221,0.1594904
7055,1.008718,1.000342,0.1594904
7057,1.008718,1.000342,0.1594904
7059,1.00561,0.9974037,0.1607126
7062,1.00561,0.9974037,0.1607126
7064,1.006777,0.9985801,0.1594904
7066,0.9999508,0.9911057,0.1619255
7069,0.9999508,0.9911057,0.1619255
7071,0.9948499,0.9857605,0.1631294
7073,0.9948499,0.9857605,0.1631294
7076,0.997992,0.9891293,0.1607126
7078,0.997992,0.9891293,0.1607126
7080,0.9993636,0.9905132,0.1607126
7084,1.001711,0.9930781,0.1594904
7086,1.001711,0.9930781,0.1594904
7088,1.002101,0.993866,0.1582588
7091,1.002101,0.993866,0.1582588
7093,1.005026,0.9970112,0.1582588
7095,1.005026,0.9970112,0.1582588
7098,1.008718,1.000538,0.1582588
7100,1.011624,1.003467,0.1582588
7102,1.011624,1.003467,0.1582588
7105,1.01317,1.005221,0.1570175
7107,1.01317,1.005221,0.1570175
7109,1.004052,0.9960293,0.1594904
7112,1.000538,0.9922896,0.1582588
7114,1.000538,0.9922896,0.1582588
7116,0.993472,0.9851648,0.1607126
7119,0.993472,0.9851648,0.1607126
7121,0.9873473,0.9785881,0.1607126
7123,0.9873473,0.9785881,0.1607126
7127,0.9835745,0.9743798,0.1619255
7129,0.9811842,0.971967,0.1619255
7131,0.9811842,0.971967,0.1619255
7134,0.9781881,0.9689425,0.1619255
7136,0.9781881,0.9689425,0.1619255
7138,0.9749822,0.9659084,0.1607126
7141,0.974179,0.9653005,0.1607126
7143,0.974179,0.9653005,0.1607126
7145,0.972772,0.9640834,0.1619255
7147,0.972772,0.9640834,0.1619255
7150,0.9733753,0.964895,0.1619255
7152,0.9733753,0.964895,0.1619255
7154,0.9747815,0.966516,0.1607126
7157,0.9759852,0.9681343,0.1594904
7159,0.9759852,0.9681343,0.1594904
7161,0.9771874,0.9697499,0.1582588
7164,0.9771874,0.9697499,0.1582588
7166,0.9773876,0.9701535,0.1594904
7169,0.9765865,0.9699516,0.1570175
7172,0.9765865,0.9699516,0.1570175
7174,0.9757847,0.9689425,0.1570175
7176,0.9757847,0.9689425,0.1570175
7179,0.9747815,0.9683364,0.1570175
7181,0.9747815,0.9683364,0.1570175
7183,0.9821809,0.9759852,0.1557664
7186,0.993866,0.9881397,0.1532334
7188,0.993866,0.9881397,0.1532334
7190,0.9985801,0.9932752,0.1532334
7193,0.9985801,0.9932752,0.1532334
7195,0.9989719,0.993669,0.1532334
7197,0.9989719,0.993669,0.1532334
7200,0.9981881,0.9924868,0.1532334
7202,0.9972074,0.9916978,0.1519511
7204,0.9972074,0.9916978,0.1519511
7207,0.9962258,0.9903157,0.1532334
7209,0.9962258,0.9903157,0.1532334
7212,0.9926839,0.9865541,0.1532334
7215,0.9909081,0.9841712,0.1545051
7217,0.9909081,0.9841712,0.1545051
7219,0.9891293,0.9817823,0.1557664
7222,0.9891293,0.9817823,0.1557664
7224,0.9883377,0.9811842,0.1570175
7226,0.9883377,0.9811842,0.1570175
7229,0.9857605,0.9779881,0.1570175
7231,0.9837734,0.9765865,0.1570175
7233,0.9837734,0.9765865,0.1570175
7235,0.985562,0.977788,0.1594904
7238,0.985562,0.977788,0.1594904
7240,0.9865541,0.9785881,0.1582588
7242,0.9867525,0.9787881,0.1594904
7245,0.9867525,0.9787881,0.1594904
7247,0.9887336,0.9807853,0.1594904
7249,0.9887336,0.9807853,0.1594904
7252,0.9918951,0.9835745,0.1607126
7255,0.9918951,0.9835745,0.1607126
7257,0.9930781,0.9847674,0.1607126
7260,1.000929,0.992881,0.1607126
7262,1.000929,0.992881,0.1607126
7264,1.01085,1.003077,0.1594904
7267,1.01085,1.003077,0.1594904
7269,1.01317,1.00561,0.1594904
7271,1.014714,1.006971,0.1594904
7274,1.014714,1.006971,0.1594904
7276,1.014136,1.006582,0.1607126
7278,1.014136,1.006582,0.1607126
7281,1.01375,1.005999,0.1607126
7283,1.01375,1.005999,0.1607126
7285,1.012784,1.00561,0.1607126
7288,1.012398,1.005415,0.1607126
7290,1.012398,1.005415,0.1607126
7292,1.011431,1.004247,0.1607126
7296,1.011431,1.004247,0.1607126
7298,1.011044,1.004247,0.1607126
7300,1.011044,1.004247,0.1607126
7303,1.009882,1.002882,0.1594904
7305,1.008136,1.000929,0.1594904
7307,1.008136,1.000929,0.1594904
7310,1.006582,0.9997552,0.1582588
7312,1.006582,0.9997552,0.1582588
7314,1.005415,0.998776,0.1582588
7317,1.001515,0.9946532,0.1582588
7319,1.001515,0.9946532,0.1582588
7321,0.9999508,0.9932752,0.1557664
7323,0.9999508,0.9932752,0.1557664
7326,1.004052,0.9975998,0.1557664
7328,1.004052,0.9975998,0.1557664
7330,1.011817,1.00561,0.1545051
7333,1.007748,1.00132,0.1532334
7335,1.007748,1.00132,0.1532334
7337,1.005221,0.9981881,0.1532334
7341,1.005221,0.9981881,0.1532334
7343,1.008136,1.001124,0.1532334
7345,1.009688,1.002882,0.1506579
7348,1.009688,1.002882,0.1506579
7350,1.009882,1.003077,0.1493534
7352,1.009882,1.003077,0.1493534
7355,1.009882,1.003662,0.1493534
7357,1.009882,1.003662,0.1493534
7359,1.011431,1.004636,0.1480375
7362,1.01317,1.006777,0.14537
7364,1.01317,1.006777,0.14537
7366,1.012204,1.005804,0.14537
7369,1.012204,1.005804,0.14537
7371,1.012204,1.005804,0.14537
7373,1.012204,1.005804,0.14537
7376,1.012204,1.005804,0.14537
7378,1.012011,1.006777,0.1440177
7380,1.012011,1.006777,0.1440177
7384,1.013557,1.008525,0.1440177
7386,1.013557,1.008525,0.1440177
7388,1.015871,1.011237,0.1426525
7391,1.017218,1.012784,0.1440177
7393,1.017218,1.012784,0.1440177
7395,1.01914,1.015293,0.1412742
7398,1.01914,1.015293,0.1412742
7400,1.020675,1.017218,0.1412742
7402,1.020675,1.017218,0.1412742
7405,1.022782,1.018756,0.1412742
7407,1.023738,1.019908,0.1426525
7409,1.023738,1.019908,0.1426525
7411,1.025075,1.021058,0.1440177
7414,1.025075,1.021058,0.1440177
7416,1.025648,1.02125,0.1440177
7418,1.025457,1.021058,0.14537
7421,1.025457,1.021058,0.14537
7424,1.024693,1.020483,0.14537
7426,1.024693,1.020483,0.14537
7429,1.023929,1.0201,0.14537
7431,1.023929,1.0201,0.14537
7433,1.017987,1.014521,0.1467098
7436,1.010269,1.006971,0.1467098
7438,1.010269,1.006971,0.1467098
7440,1.009882,1.006971,0.14537
7443,1.009882,1.006971,0.14537
7445,1.011624,1.008718,0.14537
7447,1.014136,1.011624,0.14537
7450,1.014136,1.011624,0.14537
7452,1.010269,1.007748,0.14537
7454,1.010269,1.007748,0.14537
7457,1.008136,1.00561,0.14537
7459,1.008136,1.00561,0.14537
7461,1.004636,1.002101,0.1467098
7464,1.000147,0.9974037,0.1467098
7467,1.000147,0.9974037,0.1467098
7469,0.9974037,0.9948499,0.1467098
7472,0.9952432,0.9924868,0.1480375
7474,0.993669,0.9909081,0.1467098
7476,0.993669,0.9909081,0.1467098
7479,0.9881397,0.9851648,0.1480375
7481,0.9841712,0.9813836,0.1467098
7483,0.9841712,0.9813836,0.1467098
7486,0.9797872,0.9771874,0.14537
7488,0.9797872,0.9771874,0.14537
7490,0.9781881,0.9755841,0.14537
7493,0.9707584,0.9687405,0.1426525
7495,0.9707584,0.9687405,0.1426525
7497,0.9659084,0.9646922,0.1412742
7499,0.9659084,0.9646922,0.1412742
7502,0.9591998,0.9587917,0.1370561
7504,0.9591998,0.9587917,0.1370561
7506,0.9569532,0.9565441,0.1356209
7510,0.9485323,0.9489449,0.1312212
7512,0.9485323,0.9489449,0.1312212
7514,0.9431533,0.9443973,0.1312212
7517,0.9431533,0.9443973,0.1312212
7519,0.9414921,0.9425307,0.1282043
7521,0.9392031,0.9400361,0.1251145
7524,0.9392031,0.9400361,0.1251145
7526,0.9396197,0.9410763,0.1219466
7528,0.9396197,0.9410763,0.1219466
7531,0.9402443,0.9412843,0.1186941
7533,0.9402443,0.9412843,0.1186941
7535,0.9360726,0.9381608,0.1170339
7538,0.9333511,0.9356545,0.1153499
7540,0.9333511,0.9356545,0.1153499
7542,0.9354453,0.9375348,0.1136409
7545,0.9354453,0.9375348,0.1136409
7547,0.9379522,0.9400361,0.1119058
7549,0.9375348,0.9404523,0.1119058
7553,0.9375348,0.9404523,0.1119058
7555,0.9360726,0.9389946,0.1119058
7557,0.9360726,0.9389946,0.1119058
7560,0.9358636,0.9394114,0.1119058
7562,0.9358636,0.9394114,0.1119058
7564,0.9358636,0.9396197,0.1101434
7567,0.9400361,0.9437756,0.1119058
7569,0.9400361,0.9437756,0.1119058
7571,0.9414921,0.9452258,0.1119058
7574,0.9414921,0.9452258,0.1119058
7576,0.9448116,0.9487386,0.1136409
7578,0.9448116,0.9487386,0.1136409
7581,0.9479132,0.9518273,0.1136409
7583,0.9526493,0.9563395,0.1136409
7585,0.9526493,0.9563395,0.1136409
7587,0.9577706,0.9608305,0.1153499
7590,0.9577706,0.9608305,0.1153499
7592,0.9673254,0.9709598,0.1153499
7595,0.9819816,0.9857605,0.1119058
7598,0.9819816,0.9857605,0.1119058
7600,1.0093,1.013943,0.1136409
7602,1.0093,1.013943,0.1136409
7605,1.042302,1.047545,0.1119058
7607,1.042302,1.047545,0.1119058
7609,1.049412,1.054991,0.1119058
7612,1.06091,1.067162,0.1101434
7614,1.06091,1.067162,0.1101434
7616,1.067346,1.073561,0.1101434
7619,1.067346,1.073561,0.1101434
7621,1.070641,1.0772,0.1101434
7623,1.072832,1.079197,0.1101434
7626,1.072832,1.079197,0.1101434
7628,1.059248,1.064776,0.1136409
7630,1.059248,1.064776,0.1136409
7633,1.052019,1.057214,0.1153499
7635,1.052019,1.057214,0.1153499
7638,1.050902,1.056103,0.1170339
7641,1.05053,1.055918,0.1170339
7643,1.05053,1.055918,0.1170339
7645,1.050343,1.055362,0.1153499
7648,1.050343,1.055362,0.1153499
7650,1.043802,1.048479,0.1170339
7652,1.043802,1.048479,0.1170339
7655,1.034387,1.039293,0.1153499
7657,1.031355,1.035899,0.1170339
7659,1.031355,1.035899,0.1170339
7662,1.031924,1.035899,0.1170339
7664,1.031924,1.035899,0.1170339
7666,1.025457,1.029266,0.1186941
7668,1.016641,1.0201,0.1186941
7671,1.016641,1.0201,0.1186941
7673,1.013943,1.017218,0.1203313
7675,1.013943,1.017218,0.1203313
7678,1.012398,1.015485,0.1186941
7681,1.012398,1.015485,0.1186941
7683,1.005804,1.008525,0.1203313
7686,0.9968149,0.9993636,0.1203313
7688,0.9968149,0.9993636,0.1203313
7690,0.9940628,0.9968149,0.1219466
7693,0.9940628,0.9968149,0.1219466
7695,0.9817823,0.9835745,0.1235407
7697,0.9745807,0.9757847,0.1235407
7700,0.9745807,0.9757847,0.1235407
7702,0.9642863,0.9661109,0.1235407
7704,0.9642863,0.9661109,0.1235407
7707,0.9583834,0.9596078,0.1235407
7709,0.9583834,0.9596078,0.1235407
7711,0.9547011,0.9559301,0.1219466
7714,0.9534706,0.9547011,0.1219466
7716,0.9534706,0.9547011,0.1219466
7718,0.9596078,0.9608305,0.1203313
7721,0.9596078,0.9608305,0.1203313
7724,0.9640834,0.964895,0.1186941
7726,0.957975,0.9587917,0.1186941
7729,0.957975,0.9587917,0.1186941
7731,0.9549061,0.9553158,0.1186941
7733,0.9549061,0.9553158,0.1186941
7736,0.9481196,0.9489449,0.1170339
7738,0.9481196,0.9489449,0.1170339
7740,0.9443973,0.9448116,0.1153499
7743,0.9410763,0.9414921,0.1153499
7745,0.9410763,0.9414921,0.1153499
7747,0.9362817,0.9366996,0.1136409
7750,0.9362817,0.9366996,0.1136409
7752,0.9341894,0.9350269,0.1136409
7754,0.9341894,0.9350269,0.1136409
7756,0.9333511,0.9339799,0.1119058
7759,0.930832,0.9314623,0.1136409
7761,0.930832,0.9314623,0.1136409
7763,0.9297802,0.930201,0.1119058
7767,0.9297802,0.930201,0.1119058
7769,0.9565441,0.9583834,0.1027921
7771,0.966516,0.9691444,0.1008706
7774,0.9751828,0.9779881,0.09891172
7776,0.974179,0.9771874,0.09891172
7778,0.974179,0.9771874,0.09891172
7781,0.974179,0.9769872,0.09691329
7783,0.974179,0.9769872,0.09691329
7785,0.9634743,0.9663135,0.1008706
7788,0.9575664,0.960423,0.1027921
7790,0.9575664,0.960423,0.1027921
7792,0.9510047,0.953881,0.1065312
7795,0.9510047,0.953881,0.1065312
7797,0.9489449,0.9518273,0.1065312
7799,0.9452258,0.9481196,0.1083524
7802,0.9452258,0.9481196,0.1083524
7804,0.9425307,0.9456397,0.1101434
7806,0.9425307,0.9456397,0.1101434
7810,0.9412843,0.9441901,0.1119058
7812,0.9412843,0.9441901,0.1119058
7814,0.9410763,0.9443973,0.1119058
7817,0.9383693,0.9412843,0.1136409
7819,0.9383693,0.9412843,0.1136409
7821,0.9379522,0.9406604,0.1136409
7824,0.9379522,0.9406604,0.1136409
7826,0.9379522,0.9412843,0.1136409
7828,0.9379522,0.9412843,0.1136409
7831,0.9394114,0.9427382,0.1153499
7833,0.9412843,0.9443973,0.1170339
7835,0.9412843,0.9443973,0.1170339
7838,0.9435682,0.9464671,0.1170339
7840,0.9435682,0.9464671,0.1170339
7842,0.9448116,0.9477068,0.1170339
7844,0.9475003,0.9499753,0.1186941
7847,0.9475003,0.9499753,0.1186941
7849,0.9497693,0.9522384,0.1203313
7852,0.9497693,0.9522384,0.1203313
7855,0.9516218,0.9540861,0.1203313
7857,0.9516218,0.9540861,0.1203313
7859,0.9518273,0.9540861,0.1203313
7862,0.9514161,0.953881,0.1219466
7864,0.9514161,0.953881,0.1219466
7866,0.9528548,0.9555206,0.1203313
7869,0.9528548,0.9555206,0.1203313
7871,0.9555206,0.9575664,0.1235407
7873,0.957362,0.9589957,0.1235407
7876,0.957362,0.9589957,0.1235407
7878,0.9589957,0.9600154,0.1266688
7880,0.9589957,0.9600154,0.1266688
7883,0.9669209,0.9679322,0.1266688
7885,0.9669209,0.9679322,0.1266688
7887,0.9729732,0.974179,0.1251145
7890,0.9787881,0.9793876,0.1266688
7892,0.9787881,0.9793876,0.1266688
7895,0.9799869,0.9807853,0.1266688
7898,0.9799869,0.9807853,0.1266688
7900,0.985562,0.9861575,0.1266688
7902,0.9897227,0.990118,0.1282043
7905,0.9897227,0.990118,0.1282043
7907,0.9958329,0.9960293,0.1282043
7909,0.9958329,0.9960293,0.1282043
7912,0.9909081,0.9907107,0.1282043
7914,0.9909081,0.9907107,0.1282043
7916,0.9922896,0.9918951,0.1297215
7919,0.9970112,0.9962258,0.1297215
7921,0.9970112,0.9962258,0.1297215
7923,1.000538,0.9999508,0.1297215
7926,1.000538,0.9999508,0.1297215
7928,1.003272,1.002687,0.1312212
7930,1.003272,1.002687,0.1312212
7932,0.9995593,0.998776,0.132704
7936,0.9956363,0.9950465,0.132704
7938,0.9926839,0.9918951,0.1312212
7940,0.990118,0.9891293,0.132704
7943,0.990118,0.9891293,0.132704
7945,0.9918951,0.9915005,0.1312212
7947,0.993472,0.992881,0.1312212
7950,0.993472,0.992881,0.1312212
7952,0.9991678,0.998776,0.1312212
7954,0.9991678,0.998776,0.1312212
7957,1.003272,1.003272,0.1312212
7959,1.003272,1.003272,0.1312212
7961,1.004636,1.005221,0.1297215
7964,1.007165,1.007942,0.1266688
7966,1.007165,1.007942,0.1266688
7968,0.9956363,0.9964222,0.1282043
7971,0.9956363,0.9964222,0.1282043
7973,0.9881397,0.9891293,0.1266688
7975,0.9885356,0.990118,0.1251145
7979,0.9885356,0.990118,0.1251145
7981,0.9889315,0.9907107,0.1219466
7983,0.9889315,0.9907107,0.1219466
7986,0.9942597,0.9964222,0.1203313
7988,0.9942597,0.9964222,0.1203313
7990,0.9975998,1.000147,0.1170339
7993,0.998776,1.001515,0.1153499
7995,0.998776,1.001515,0.1153499
7997,0.9991678,1.002101,0.1119058
8000,0.9991678,1.002101,0.1119058
8002,1.002296,1.005415,0.1083524
8004,1.004052,1.007554,0.1083524
8007,1.004052,1.007554,0.1083524
8009,0.9975998,1.000733,0.1046783
8011,0.9975998,1.000733,0.1046783
8014,0.9865541,0.9897227,0.1065312
8016,0.9865541,0.9897227,0.1065312
8018,0.9889315,0.9922896,0.1046783
8020,0.9897227,0.9930781,0.1027921
8024,0.9897227,0.9930781,0.1027921
8026,0.9835745,0.9873473,0.1008706
8028,0.9835745,0.9873473,0.1008706
8031,0.978988,0.98238,0.1008706
8033,0.978988,0.98238,0.1008706
8035,0.978988,0.98238,0.1008706
8038,0.9801866,0.9835745,0.1008706
8040,0.9801866,0.9835745,0.1008706
8042,1.012398,1.016448,0.09891172
8045,1.012398,1.016448,0.09891172
8047,1.03363,1.038352,0.09891172
8049,1.048479,1.052763,0.1027921
8052,1.048479,1.052763,0.1027921
8054,1.058694,1.062752,0.1046783
8056,1.058694,1.062752,0.1046783
8059,1.066061,1.069726,0.1083524
8061,1.066061,1.069726,0.1083524
8064,1.076837,1.080103,0.1119058
8067,1.087505,1.089663,0.1170339
8069,1.087505,1.089663,0.1170339
8071,1.097179,1.098605,0.1203313
8074,1.097179,1.098605,0.1203313
8076,1.087505,1.089842,0.1186941
8078,1.083901,1.086785,0.1170339
8081,1.083901,1.086785,0.1170339
8083,1.075928,1.078834,0.1136409
8085,1.075928,1.078834,0.1136409
8088,1.068079,1.071006,0.1136409
8090,1.068079,1.071006,0.1136409
8092,1.062016,1.064776,0.1136409
8095,1.057214,1.059987,0.1119058
8097,1.057214,1.059987,0.1119058
8099,1.052205,1.055362,0.1083524
8102,1.052205,1.055362,0.1083524
8104,1.049784,1.053134,0.1083524
8107,1.049784,1.053134,0.1083524
8109,1.049038,1.052948,0.1083524
8112,1.051088,1.055362,0.1065312
8114,1.051088,1.055362,0.1065312
8116,1.052019,1.057029,0.1065312
8119,1.052019,1.057029,0.1065312
8121,1.052391,1.057954,0.1046783
8123,1.050716,1.057399,0.1008706
8126,1.050716,1.057399,0.1008706
8128,1.048292,1.055918,0.09891172
8130,1.048292,1.055918,0.09891172
8133,1.047358,1.055362,0.09691329
8135,1.047358,1.055362,0.09691329
8137,1.041738,1.05053,0.09691329
8140,1.032872,1.042677,0.09691329
8142,1.032872,1.042677,0.09691329
8144,1.023355,1.03363,0.09691329
8147,1.023355,1.03363,0.09691329
8150,1.000538,1.011624,0.09891172
8152,0.9847674,0.9958329,0.09691329
8155,0.9717657,0.9829774,0.09891172
8157,0.9608305,0.9721684,0.09691329
8159,0.9608305,0.9721684,0.09691329
8162,0.9187712,0.9297802,0.1008706
8164,0.9028733,0.9138597,0.1008706
8166,0.8895546,0.9004862,0.1008706
8169,0.9149297,0.9255615,0.09691329
8171,0.9149297,0.9255615,0.09691329
8173,0.9425307,0.9530601,0.09487279
8176,0.9425307,0.9530601,0.09487279
8178,0.9699516,0.9805858,0.09065409
8180,0.9799869,0.9905132,0.09065409
8183,0.9799869,0.9905132,0.09065409
8185,1.014136,1.024311,0.08846933
8187,1.014136,1.024311,0.08846933
8190,1.021442,1.031735,0.08622923
8193,1.021442,1.031735,0.08622923
8195,1.034954,1.045114,0.08622923
8197,1.045863,1.055918,0.08392937
8200,1.045863,1.055918,0.08392937
