time,turnedAngle,pitchAngle,yawAngle

757161,0,0,0
757164,0,0,0
757167,0,0,0
757169,0.6935157,0.6957693,0
0,0.6940797,0.6966124,0
1,0.6940797,0.6966124,0
2,0.6985759,0.7010924,0
4,0.6985759,0.7010924,0
5,0.7005339,0.7030433,0
7,0.7005339,0.7030433,0
8,0.7024865,0.7047113,0
10,0.7024865,0.7047113,0
12,0.7063754,0.7083117,0
14,0.7102429,0.7127182,0
16,0.7102429,0.7127182,0
19,0.7168246,0.7195491,0
21,0.7168246,0.7195491,0
23,0.7022079,0.7047113,0
25,0.7022079,0.7047113,0
27,0.6898379,0.6923862,0
29,0.6801254,0.6827098,-0.01978234
32,0.6792617,0.6815624,0
34,0.6792617,0.6815624,0
36,0.6786853,0.680988,0
38,0.6786853,0.680988,0
40,0.6869956,0.6892704,0
43,0.6901216,0.6921035,0
46,0.6901216,0.6921035,0
48,0.6940797,0.6960504,0
50,0.6940797,0.6960504,0
52,0.6994157,0.7010924,0
54,0.6994157,0.7010924,0
56,0.6824232,0.6835691,0.01978234
58,0.6824232,0.6835691,0.01978234
61,0.6679325,0.6688108,0
63,0.6679325,0.6688108,0
65,0.6578966,0.6584912,0.02797646
67,0.6590852,0.6596788,0.02797646
69,0.6590852,0.6596788,0.02797646
71,0.6596788,0.6602717,0.01978234
74,0.6596788,0.6602717,0.01978234
76,0.6682253,0.6688108,0.02797646
78,0.6682253,0.6688108,0.02797646
80,0.6528208,0.6528208,0.03426402
82,0.6528208,0.6528208,0.03426402
84,0.6391903,0.6391903,0.03426402
88,0.6391903,0.6391903,0.03426402
90,0.6277614,0.6271377,0.03426402
92,0.6277614,0.6271377,0.03426402
94,0.635814,0.6351982,0.03956468
96,0.6382713,0.6373509,0.03956468
98,0.6382713,0.6373509,0.03956468
100,0.6540186,0.6531205,0.03956468
103,0.6540186,0.6531205,0.03956468
105,0.6391903,0.6382713,0.03956468
107,0.6391903,0.6382713,0.03956468
109,0.6158028,0.6145305,0.04423466
112,0.6158028,0.6145305,0.04423466
114,0.6058724,0.6042554,0.04423466
116,0.6170725,0.616438,0.03426402
118,0.6170725,0.616438,0.03426402
121,0.6370438,0.6376578,0.02797646
123,0.6370438,0.6376578,0.02797646
125,0.646193,0.6471007,0.01978234
128,0.646193,0.6471007,0.01978234
131,0.6652907,0.667053,0
133,0.6652907,0.667053,0
135,0.6755064,0.6775311,0.01978234
137,0.6884183,0.6906884,0
140,0.6884183,0.6906884,0
142,0.6923862,0.6946434,0
144,0.6923862,0.6946434,0
146,0.6954879,0.6980155,0
149,0.6954879,0.6980155,0
151,0.7091401,0.711894,0
153,0.7140896,0.7170975,-0.01978234
155,0.7140896,0.7170975,-0.01978234
158,0.7203645,0.7233464,-0.01978234
160,0.7203645,0.7233464,-0.01978234
162,0.7300779,0.7330202,-0.03426402
164,0.7300779,0.7330202,-0.03426402
166,0.7343537,0.7372789,-0.03956468
169,0.7343537,0.7372789,-0.03956468
172,0.7378095,0.7407211,-0.03956468
174,0.7638705,0.7661725,-0.04845664
176,0.7638705,0.7661725,-0.04845664
179,0.7735435,0.7758168,-0.05233916
181,0.7735435,0.7758168,-0.05233916
183,0.7720242,0.774302,-0.05934703
185,0.7720242,0.774302,-0.05934703
188,0.7715172,0.7740492,-0.05934703
190,0.7715172,0.7740492,-0.05934703
192,0.7648944,0.7666831,-0.06255726
194,0.762332,0.7646385,-0.0656106
197,0.762332,0.7646385,-0.0656106
199,0.7615615,0.7633579,-0.0656106
201,0.7615615,0.7633579,-0.0656106
203,0.7610474,0.7628451,-0.0656106
206,0.7610474,0.7628451,-0.0656106
208,0.7595032,0.7610474,-0.06852804
210,0.7569224,0.7582139,-0.06852804
212,0.7569224,0.7582139,-0.06852804
216,0.7548515,0.7566639,-0.06852804
218,0.7548515,0.7566639,-0.06852804
220,0.7545922,0.7561465,-0.06852804
222,0.7545922,0.7561465,-0.06852804
225,0.7548515,0.7561465,-0.06852804
227,0.7548515,0.7561465,-0.06852804
229,0.7553698,0.7569224,-0.0656106
231,0.7666831,0.7682129,-0.06852804
233,0.7666831,0.7682129,-0.06852804
236,0.7838463,0.7853427,-0.07132626
238,0.7838463,0.7853427,-0.07132626
240,0.7850935,0.7868362,-0.06852804
242,0.7850935,0.7868362,-0.06852804
245,0.7878303,0.7898148,-0.06852804
247,0.7878303,0.7898148,-0.06852804
249,0.7838463,0.7858408,-0.0656106
251,0.7810954,0.7833468,-0.06852804
254,0.7810954,0.7833468,-0.06852804
257,0.7893192,0.7910526,-0.06852804
259,0.7893192,0.7910526,-0.06852804
261,0.7925354,0.7942618,-0.0656106
264,0.7925354,0.7942618,-0.0656106
266,0.8011303,0.8030819,-0.06852804
268,0.8045425,0.8067285,-0.06852804
270,0.8045425,0.8067285,-0.06852804
273,0.796476,0.7981939,-0.06852804
275,0.796476,0.7981939,-0.06852804
277,0.7935224,0.7954926,-0.06852804
279,0.7935224,0.7954926,-0.06852804
282,0.7895671,0.7922885,-0.05595291
284,0.7895671,0.7922885,-0.05595291
286,0.7883269,0.7915472,-0.04845664
288,0.783097,0.7863387,-0.04845664
291,0.783097,0.7863387,-0.04845664
293,0.7760689,0.7793398,-0.04423466
295,0.7760689,0.7793398,-0.04423466
297,0.7735435,0.7765731,-0.04845664
300,0.7735435,0.7765731,-0.04845664
303,0.7717707,0.7748073,-0.04845664
305,0.7682129,0.7707559,-0.04845664
307,0.7682129,0.7707559,-0.04845664
309,0.7666831,0.7689767,-0.05233916
312,0.7666831,0.7689767,-0.05233916
314,0.7692311,0.7720242,-0.05233916
316,0.7692311,0.7720242,-0.05233916
318,0.774302,0.776825,-0.05233916
321,0.774302,0.776825,-0.05233916
323,0.7669383,0.7694854,-0.04423466
325,0.7607903,0.7636142,-0.03426402
327,0.7607903,0.7636142,-0.03426402
330,0.751474,0.7543329,-0.02797646
332,0.751474,0.7543329,-0.02797646
334,0.7491269,0.7519946,-0.02797646
336,0.7491269,0.7519946,-0.02797646
339,0.7470343,0.7499101,-0.02797646
342,0.7470343,0.7499101,-0.02797646
344,0.7438844,0.7467723,-0.02797646
346,0.7459858,0.7488656,-0.02797646
349,0.7459858,0.7488656,-0.02797646
351,0.7478197,0.7506924,-0.03426402
353,0.7478197,0.7506924,-0.03426402
355,0.7488656,0.7519946,-0.03956468
357,0.7488656,0.7532945,-0.03956468
360,0.7519946,0.7545922,-0.03956468
362,0.7512136,0.7540734,-0.04423466
364,0.7512136,0.7540734,-0.04423466
366,0.7504317,0.7532945,-0.04423466
369,0.7504317,0.7532945,-0.04423466
371,0.7499101,0.7527748,-0.04423466
373,0.7499101,0.7527748,-0.04423466
375,0.7527748,0.7548515,-0.04845664
378,0.7527748,0.7548515,-0.04845664
380,0.7530347,0.7556288,-0.04845664
382,0.7532945,0.7553698,-0.05233916
385,0.7532945,0.7553698,-0.05233916
388,0.7525149,0.7551107,-0.05233916
390,0.7525149,0.7551107,-0.05233916
392,0.7519946,0.7545922,-0.05233916
394,0.7519946,0.7545922,-0.05233916
397,0.7535542,0.7556288,-0.05595291
399,0.7535542,0.7556288,-0.05595291
401,0.7538139,0.7564052,-0.05233916
403,0.7545922,0.7564052,-0.05595291
406,0.7545922,0.7564052,-0.05595291
408,0.7540734,0.7561465,-0.05595291
410,0.7540734,0.7561465,-0.05595291
412,0.7540734,0.7561465,-0.05934703
415,0.7540734,0.7561465,-0.05934703
417,0.7519946,0.7540734,-0.05934703
419,0.7509531,0.7530347,-0.05934703
421,0.7509531,0.7530347,-0.05934703
423,0.7506924,0.7525149,-0.06255726
427,0.7501709,0.7519946,-0.06255726
429,0.7486043,0.7504317,-0.06255726
431,0.7486043,0.7504317,-0.06255726
433,0.747558,0.7491269,-0.06852804
436,0.747558,0.7491269,-0.06852804
438,0.7459858,0.7478197,-0.0656106
440,0.7433581,0.7451985,-0.06852804
442,0.7433581,0.7451985,-0.06852804
445,0.7433581,0.7451985,-0.06852804
447,0.7433581,0.7451985,-0.06852804
449,0.7433581,0.7451985,-0.06852804
451,0.7433581,0.7451985,-0.06852804
454,0.7420408,0.7438844,-0.06852804
456,0.7420408,0.7438844,-0.06852804
458,0.749649,0.751474,-0.06852804
460,0.7607903,0.7625886,-0.07132626
463,0.7607903,0.7625886,-0.07132626
465,0.7610474,0.7628451,-0.07132626
467,0.7610474,0.7628451,-0.07132626
470,0.7615615,0.7633579,-0.07132626
473,0.7615615,0.7633579,-0.07132626
475,0.7595032,0.7615615,-0.07401875
477,0.7579558,0.7600183,-0.07132626
479,0.7579558,0.7600183,-0.07132626
482,0.7501709,0.7519946,-0.06852804
484,0.7501709,0.7519946,-0.06852804
486,0.7472962,0.7488656,-0.07132626
488,0.7472962,0.7488656,-0.07132626
490,0.7446731,0.7470343,-0.06852804
493,0.7446731,0.7470343,-0.06852804
495,0.7415132,0.7433581,-0.0656106
497,0.7407211,0.7423044,-0.0656106
499,0.7407211,0.7423044,-0.0656106
502,0.7393991,0.7415132,-0.06255726
504,0.7393991,0.7415132,-0.06255726
506,0.742568,0.7446731,-0.06255726
508,0.742568,0.7446731,-0.06255726
512,0.7433581,0.7457234,-0.0656106
514,0.7386047,0.7415132,-0.05233916
516,0.7348864,0.7375443,-0.04423466
518,0.7316842,0.7346201,-0.03426402
521,0.7316842,0.7346201,-0.03426402
523,0.6647022,0.6673463,0
525,0.6647022,0.6673463,0
527,0.6094146,0.6113381,0
530,0.6094146,0.6113381,0
532,0.5650989,0.5664824,0.01978234
534,0.5654452,0.5668277,0.01978234
536,0.5654452,0.5668277,0.01978234
539,0.5811456,0.5821548,0.01978234
541,0.5811456,0.5821548,0.01978234
543,0.6029587,0.6032831,0.01978234
545,0.6029587,0.6032831,0.01978234
548,0.6161205,0.616438,0.01978234
550,0.6161205,0.616438,0.01978234
552,0.6262009,0.6265134,0.02797646
555,0.649214,0.6498165,0.01978234
557,0.649214,0.6498165,0.01978234
560,0.661456,0.6623429,0.01978234
562,0.661456,0.6623429,0.01978234
564,0.6775311,0.6789736,0
566,0.6775311,0.6789736,0
569,0.6824232,0.6841414,0
571,0.6869956,0.6884183,0.01978234
573,0.6869956,0.6884183,0.01978234
575,0.6926687,0.6940797,0.01978234
578,0.6926687,0.6940797,0.01978234
580,0.6293179,0.6293179,0.02797646
582,0.6293179,0.6293179,0.02797646
584,0.5767518,0.575053,0.04423466
587,0.5767518,0.575053,0.04423466
589,0.533392,0.53008,0.05233916
591,0.533025,0.5293413,0.05233916
593,0.533025,0.5293413,0.05233916
596,0.5489398,0.5457222,0.05233916
599,0.5489398,0.5457222,0.05233916
601,0.5623221,0.5595313,0.05233916
603,0.5623221,0.5595313,0.05233916
606,0.5730078,0.5702693,0.05233916
608,0.5730078,0.5702693,0.05233916
610,0.5650989,0.5623221,0.05233916
612,0.5612772,0.5584812,0.04845664
615,0.5612772,0.5584812,0.04845664
617,0.5808088,0.5784457,0.04845664
619,0.5808088,0.5784457,0.04845664
621,0.5970887,0.5951191,0.04423466
623,0.5970887,0.5951191,0.04423466
626,0.6205508,0.6189722,0.03956468
628,0.6286958,0.6277614,0.04423466
630,0.6286958,0.6277614,0.04423466
632,0.6443735,0.644677,0.02797646
635,0.6443735,0.644677,0.02797646
637,0.6711472,0.6728944,0.01978234
640,0.6711472,0.6728944,0.01978234
642,0.6829963,0.6852845,0
645,0.6829963,0.6852845,0
647,0.6929511,0.6954879,0
649,0.7024865,0.7047113,0
651,0.7024865,0.7047113,0
654,0.7060983,0.708588,0
656,0.7060983,0.708588,0
658,0.7074825,0.7099674,0
660,0.7074825,0.7099674,0
663,0.7088641,0.7107937,0
665,0.7088641,0.7107937,0
667,0.7124436,0.7146374,0
669,0.7206361,0.7233464,0
672,0.7206361,0.7233464,0
674,0.7249676,0.7276617,0
676,0.7249676,0.7276617,0
678,0.7284679,0.7314168,0
681,0.7284679,0.7314168,0
684,0.7343537,0.7372789,-0.01978234
686,0.7364823,0.7396637,-0.01978234
688,0.7364823,0.7396637,-0.01978234
690,0.6135744,0.6161205,0
693,0.6135744,0.6161205,0
695,0.5671728,0.5695826,0
697,0.5671728,0.5695826,0
699,0.5682068,0.5706123,0
702,0.5682068,0.5706123,0
704,0.5678623,0.5702693,0
706,0.5861744,0.5885065,-0.01978234
708,0.5861744,0.5885065,-0.01978234
711,0.6006827,0.6032831,0
713,0.6006827,0.6032831,0
715,0.6407191,0.6431577,-0.02797646
717,0.6407191,0.6431577,-0.02797646
720,0.6552143,0.6578966,-0.02797646
722,0.6552143,0.6578966,-0.02797646
724,0.6635236,0.6661724,-0.01978234
727,0.6702721,0.6731851,0
730,0.6702721,0.6731851,0
732,0.680988,0.6832828,0
734,0.680988,0.6832828,0
736,0.6849989,0.6872803,0
739,0.6849989,0.6872803,0
741,0.6889865,0.6909717,0
743,0.6906884,0.6921035,0
745,0.6906884,0.6921035,0
748,0.7038778,0.7052664,0
750,0.7038778,0.7052664,0
752,0.708588,0.7102429,0.01978234
754,0.708588,0.7102429,0.01978234
756,0.7151849,0.7168246,0.01978234
759,0.7151849,0.7168246,0.01978234
761,0.7249676,0.7263159,0.01978234
763,0.7214502,0.7225344,0.02797646
765,0.7214502,0.7225344,0.02797646
769,0.7162784,0.717643,0.01978234
771,0.7162784,0.717643,0.01978234
773,0.7181882,0.7195491,0.01978234
775,0.7181882,0.7195491,0.01978234
778,0.719821,0.721179,0.01978234
780,0.721179,0.7225344,0.02797646
782,0.721179,0.7225344,0.02797646
784,0.7233464,0.7244276,0.02797646
787,0.7233464,0.7244276,0.02797646
789,0.7241574,0.7252374,0.01978234
791,0.7241574,0.7252374,0.01978234
793,0.7252374,0.7260464,0.01978234
796,0.7252374,0.7260464,0.01978234
798,0.7287365,0.7298098,0.02797646
800,0.7308815,0.7316842,0.02797646
802,0.7308815,0.7316842,0.02797646
805,0.7346201,0.7364823,0
807,0.7346201,0.7364823,0
809,0.7383398,0.7401926,0
812,0.7383398,0.7401926,0
814,0.747558,0.7499101,0
817,0.747558,0.7499101,0
819,0.7525149,0.7553698,0
821,0.7564052,0.7592455,0
823,0.7564052,0.7592455,0
826,0.7597608,0.762332,0
828,0.7597608,0.762332,0
830,0.7558876,0.7582139,0
832,0.7558876,0.7582139,0
835,0.7504317,0.7527748,0
837,0.7388696,0.7409853,0
839,0.7388696,0.7409853,0
841,0.7330202,0.7351527,0
844,0.7330202,0.7351527,0
846,0.7281993,0.7303458,0.01978234
848,0.7281993,0.7303458,0.01978234
850,0.7217214,0.7236168,0
854,0.7217214,0.7236168,0
856,0.7138155,0.7149112,0.01978234
858,0.7116191,0.7124436,0.02797646
860,0.7116191,0.7124436,0.02797646
863,0.6467983,0.6452838,0.04423466
865,0.6467983,0.6452838,0.04423466
867,0.5947903,0.5914913,0.05934703
869,0.5947903,0.5914913,0.05934703
872,0.5517841,0.5460806,0.06852804
874,0.5517841,0.5460806,0.06852804
876,0.5507192,0.5450047,0.06852804
878,0.5492961,0.5432066,0.07132626
880,0.5492961,0.5432066,0.07132626
883,0.4356619,0.4233615,0.08846933
885,0.4356619,0.4233615,0.08846933
887,0.4432315,0.4320539,0.08392937
889,0.4432315,0.4320539,0.08392937
892,0.4489339,0.4379019,0.08392937
894,0.4154301,0.4020255,0.09065409
897,0.4154301,0.4020255,0.09065409
899,0.3846134,0.3690354,0.09691329
902,0.3846134,0.3690354,0.09691329
904,0.3238513,0.302612,0.1065312
906,0.3238513,0.302612,0.1065312
908,0.2954137,0.2705197,0.1119058
911,0.2954137,0.2705197,0.1119058
913,0.2712421,0.2430897,0.1186941
915,0.302612,0.2832403,0.1027921
917,0.302612,0.2832403,0.1027921
920,0.3516591,0.3420692,0.08156469
922,0.3516591,0.3420692,0.08156469
924,0.3961419,0.3886621,0.07401875
926,0.3961419,0.3886621,0.07401875
929,0.4739525,0.4689721,0.06255726
931,0.4739525,0.4689721,0.06255726
933,0.508604,0.5039662,0.05934703
935,0.5366834,0.533025,0.05595291
939,0.5366834,0.533025,0.05595291
941,0.5944612,0.5938025,0.03426402
943,0.5944612,0.5938025,0.03426402
945,0.6167554,0.6167554,0.02797646
947,0.6167554,0.6167554,0.02797646
950,0.5377761,0.5355885,0.04423466
952,0.5082192,0.5051297,0.05233916
954,0.5082192,0.5051297,0.05233916
956,0.4597013,0.4545648,0.06255726
959,0.4597013,0.4545648,0.06255726
961,0.3881583,0.3784592,0.07912937
963,0.3881583,0.3784592,0.07912937
965,0.3460502,0.3339648,0.08846933
968,0.3460502,0.3339648,0.08846933
970,0.3414966,0.3304307,0.08846933
972,0.3663747,0.358274,0.07661668
974,0.3663747,0.358274,0.07661668
977,0.3871488,0.3805216,0.07132626
979,0.3871488,0.3805216,0.07132626
982,0.3642322,0.3566318,0.07401875
984,0.3642322,0.3566318,0.07401875
987,0.3292442,0.3189811,0.08392937
989,0.3615361,0.3544303,0.07132626
991,0.3615361,0.3544303,0.07132626
993,0.4102162,0.4073442,0.05233916
996,0.4102162,0.4073442,0.05233916
998,0.4498048,0.4471871,0.04845664
1000,0.4498048,0.4471871,0.04845664
1002,0.5093729,0.5074486,0.04423466
1005,0.5093729,0.5074486,0.04423466
1007,0.5395923,0.5377761,0.04423466
1009,0.5650989,0.563365,0.04423466
1012,0.5650989,0.563365,0.04423466
1014,0.6129363,0.6122975,0.03426402
1016,0.6129363,0.6122975,0.03426402
1019,0.6351982,0.6355062,0.01978234
1021,0.6647022,0.6655847,0.02797646
1024,0.6647022,0.6655847,0.02797646
1027,0.6769533,0.6781085,0.01978234
1029,0.6769533,0.6781085,0.01978234
1031,0.6867107,0.687565,0.02797646
1034,0.6867107,0.687565,0.02797646
1036,0.7038778,0.7044336,0.02797646
1038,0.7074825,0.7083117,0.02797646
1041,0.7074825,0.7083117,0.02797646
1043,0.7157319,0.7160051,0.03426402
1045,0.7157319,0.7160051,0.03426402
1048,0.7203645,0.7214502,0.02797646
1050,0.7252374,0.7268545,0
1052,0.7252374,0.7268545,0
1054,0.7298098,0.7314168,0.01978234
1057,0.7298098,0.7314168,0.01978234
1059,0.7306137,0.7322189,0.01978234
1061,0.7306137,0.7322189,0.01978234
1064,0.7319516,0.733287,0.01978234
1067,0.7303458,0.7314168,0.02797646
1069,0.7303458,0.7314168,0.02797646
1072,0.7370135,0.7378095,0.01978234
1074,0.7370135,0.7378095,0.01978234
1076,0.7486043,0.7504317,0
1079,0.7457234,0.7472962,0.01978234
1081,0.7457234,0.7472962,0.01978234
1083,0.7438844,0.7457234,0.01978234
1086,0.7438844,0.7457234,0.01978234
1088,0.7433581,0.7449358,0.02797646
1090,0.7478197,0.7491269,0.01978234
1093,0.751474,0.7532945,0.01978234
1095,0.7551107,0.7569224,0.01978234
1097,0.7551107,0.7569224,0.01978234
1100,0.7633579,0.7651502,0
1102,0.7633579,0.7651502,0
1104,0.7666831,0.7689767,0
1107,0.7666831,0.7689767,0
1110,0.7727842,0.7758168,0
1112,0.7775803,0.7798419,0
1115,0.7775803,0.7798419,0
1117,0.7813459,0.7840959,0
1119,0.7813459,0.7840959,0
1122,0.7184606,0.7209076,0
1124,0.6638185,0.6655847,0
1126,0.6638185,0.6655847,0
1129,0.6183397,0.6199199,0
1131,0.6183397,0.6199199,0
1133,0.4957456,0.4973219,0.02797646
1136,0.4957456,0.4973219,0.02797646
1138,0.4498048,0.450674,0.03426402
1140,0.3593647,0.3577275,0.0656106
1142,0.3593647,0.3577275,0.0656106
1145,0.3256589,0.3220336,0.07661668
1147,0.3256589,0.3220336,0.07661668
1149,0.2705197,0.2601963,0.09691329
1153,0.2502292,0.235734,0.1065312
1155,0.2502292,0.235734,0.1065312
1157,0.2382111,0.220287,0.1153499
1160,0.2382111,0.220287,0.1153499
1162,0.2220564,0.1958353,0.1266688
1164,0.2220564,0.1958353,0.1266688
1167,0.2167048,0.1866263,0.1312212
1169,0.2470816,0.2176059,0.1282043
1171,0.2470816,0.2176059,0.1282043
1174,0.2470816,0.2176059,0.1282043
1176,0.2470816,0.2176059,0.1282043
1178,0.2470816,0.2176059,0.1282043
1181,0.2470816,0.2176059,0.1282043
1183,0.2548778,0.2255535,0.1297215
1185,0.2609472,0.2306999,0.1282043
1188,0.2609472,0.2306999,0.1282043
1190,0.3403488,0.3195939,0.1136409
1192,0.3403488,0.3195939,0.1136409
1196,0.3716771,0.3527702,0.1101434
1198,0.3238513,0.3000144,0.1153499
1200,0.3238513,0.3000144,0.1153499
1203,0.3058279,0.2797648,0.1186941
1205,0.3058279,0.2797648,0.1186941
1207,0.2818553,0.2571706,0.1153499
1210,0.2818553,0.2571706,0.1153499
1212,0.2438933,0.220287,0.1083524
1214,0.2804634,0.2609472,0.1027921
1217,0.2804634,0.2609472,0.1027921
1219,0.3109043,0.2947506,0.09487279
1221,0.3109043,0.2947506,0.09487279
1224,0.3711503,0.3566318,0.09065409
1226,0.392669,0.3800071,0.08846933
1228,0.392669,0.3800071,0.08846933
1230,0.4379019,0.4288719,0.07661668
1233,0.4379019,0.4288719,0.07661668
1235,0.508604,0.5043544,0.05595291
1238,0.508604,0.5043544,0.05595291
1241,0.5435666,0.5399548,0.05233916
1243,0.5974163,0.5951191,0.04845664
1245,0.5974163,0.5951191,0.04845664
1248,0.6221254,0.6199199,0.04845664
1250,0.6221254,0.6199199,0.04845664
1252,0.6431577,0.6413296,0.04845664
1255,0.6620474,0.6599753,0.05233916
1257,0.6620474,0.6599753,0.05233916
1259,0.6789736,0.6769533,0.05233916
1262,0.6789736,0.6769533,0.05233916
1264,0.6330382,0.6286958,0.06852804
1266,0.6330382,0.6286958,0.06852804
1269,0.5961047,0.589503,0.07661668
1271,0.6010084,0.5931431,0.08392937
1273,0.6010084,0.5931431,0.08392937
1276,0.605226,0.5964329,0.08846933
1278,0.605226,0.5964329,0.08846933
1281,0.6221254,0.6138933,0.09065409
1284,0.6221254,0.6138933,0.09065409
1286,0.6370438,0.6283845,0.09065409
1288,0.6032831,0.5914913,0.1027921
1291,0.6032831,0.5914913,0.1027921
1293,0.5654452,0.5510744,0.1119058
1295,0.5654452,0.5510744,0.1119058
1298,0.5348573,0.518133,0.1186941
1300,0.4149588,0.3856296,0.1412742
1302,0.4149588,0.3856296,0.1412742
1305,0.4284154,0.4015385,0.1384764
1307,0.4284154,0.4015385,0.1384764
1309,0.4392403,0.4135417,0.1356209
1312,0.4392403,0.4135417,0.1356209
1314,0.4768338,0.454995,0.1312212
1316,0.508604,0.4885893,0.1266688
1318,0.508604,0.4885893,0.1266688
1321,0.5059038,0.4857778,0.1266688
1324,0.5059038,0.4857778,0.1266688
1326,0.4817329,0.4597013,0.1312212
1329,0.4427898,0.4173099,0.1384764
1331,0.4427898,0.4173099,0.1384764
1333,0.4111691,0.3820612,0.1440177
1336,0.4111691,0.3820612,0.1440177
1338,0.3846134,0.3522151,0.1493534
1340,0.3846134,0.3522151,0.1493534
1343,0.3345502,0.2947506,0.1582588
1345,0.3146578,0.272681,0.1594904
1347,0.3146578,0.272681,0.1594904
1350,0.2987072,0.2525642,0.1607126
1352,0.2987072,0.2525642,0.1607126
1354,0.2853053,0.2365626,0.1643245
1357,0.2639296,0.2112177,0.165511
1359,0.2639296,0.2112177,0.165511
1361,0.2556444,0.2007689,0.166689
1364,0.2556444,0.2007689,0.166689
1367,0.249446,0.1948336,0.165511
1369,0.249446,0.1948336,0.165511
1372,0.2762456,0.234068,0.1545051
1374,0.309643,0.2755364,0.1440177
1376,0.309643,0.2755364,0.1440177
1379,0.3397734,0.3102743,0.1370561
1381,0.3397734,0.3102743,0.1370561
1383,0.3316129,0.3032579,0.132704
1386,0.3316129,0.3032579,0.132704
1388,0.309643,0.2846186,0.1266688
1390,0.2927522,0.2705197,0.1203313
1393,0.2927522,0.2705197,0.1203313
1395,0.2797648,0.2594432,0.1170339
1397,0.2797648,0.2594432,0.1170339
1400,0.3533245,0.3454843,0.08392937
1402,0.3835945,0.3784592,0.07132626
1404,0.3835945,0.3784592,0.07132626
1406,0.4102162,0.4073442,0.05934703
1410,0.4102162,0.4073442,0.05934703
1412,0.4601268,0.4588492,0.04423466
1414,0.4601268,0.4588492,0.04423466
1417,0.4374548,0.4374548,0.03956468
1419,0.429328,0.4302385,0.03426402
1421,0.429328,0.4302385,0.03426402
1424,0.3706227,0.3685048,0.06255726
1426,0.3706227,0.3685048,0.06255726
1428,0.3494264,0.3460502,0.06852804
1431,0.4177785,0.416371,0.05595291
1433,0.4177785,0.416371,0.05595291
1435,0.4445539,0.4432315,0.05233916
1438,0.4445539,0.4432315,0.05233916
1440,0.4102162,0.4049353,0.07401875
1442,0.4102162,0.4049353,0.07401875
1445,0.3976209,0.3911712,0.07912937
1447,0.3555328,0.3426407,0.1027921
1449,0.3555328,0.3426407,0.1027921
1453,0.3409232,0.324455,0.1119058
1455,0.3409232,0.324455,0.1119058
1457,0.4111691,0.3990945,0.09691329
1460,0.4111691,0.3990945,0.09691329
1462,0.4383485,0.4284154,0.09065409
1464,0.4149588,0.4005627,0.1065312
1467,0.4149588,0.4005627,0.1065312
1469,0.4005627,0.382573,0.1153499
1471,0.4005627,0.382573,0.1153499
1474,0.4467493,0.4302385,0.1136409
1476,0.5188877,0.5047422,0.1101434
1478,0.5188877,0.5047422,0.1101434
1481,0.4973219,0.4813265,0.1153499
1483,0.4973219,0.4813265,0.1153499
1485,0.468137,0.4476244,0.1282043
1488,0.468137,0.4476244,0.1282043
1490,0.4941643,0.4756011,0.1251145
1492,0.5359538,0.5185105,0.1219466
1495,0.5359538,0.5185105,0.1219466
1498,0.5661368,0.5507192,0.1170339
1500,0.5661368,0.5507192,0.1170339
1502,0.6145305,0.6013339,0.1119058
1505,0.6394964,0.6277614,0.1083524
1507,0.6394964,0.6277614,0.1083524
1509,0.6611602,0.6504185,0.1027921
1512,0.6611602,0.6504185,0.1027921
1514,0.6963314,0.6872803,0.09891172
1516,0.6963314,0.6872803,0.09891172
1519,0.7107937,0.7027649,0.09691329
1521,0.66998,0.6596788,0.1027921
1523,0.66998,0.6596788,0.1027921
1526,0.6268256,0.6138933,0.1119058
1528,0.6268256,0.6138933,0.1119058
1530,0.6006827,0.5885065,0.1065312
1533,0.6148488,0.6065179,0.09278741
1536,0.6148488,0.6065179,0.09278741
1538,0.633656,0.6255757,0.08846933
1541,0.633656,0.6255757,0.08846933
1543,0.649214,0.6419396,0.08622923
1545,0.649214,0.6419396,0.08622923
1548,0.6792617,0.6731851,0.07912937
1550,0.6935157,0.6878495,0.07912937
1552,0.6935157,0.6878495,0.07912937
1555,0.7168246,0.7116191,0.07661668
1557,0.7168246,0.7116191,0.07661668
1559,0.7263159,0.7214502,0.07661668
1562,0.7263159,0.7214502,0.07661668
1564,0.7412493,0.7364823,0.07401875
1566,0.7470343,0.742568,0.07401875
1569,0.7470343,0.742568,0.07401875
1571,0.7545922,0.7499101,0.07661668
1573,0.7545922,0.7499101,0.07661668
1575,0.7566639,0.7519946,0.07661668
1579,0.7589878,0.7545922,0.07661668
1581,0.7589878,0.7545922,0.07661668
1583,0.7610474,0.7564052,0.07912937
1586,0.7610474,0.7564052,0.07912937
1588,0.7625886,0.7579558,0.07912937
1590,0.7625886,0.7579558,0.07912937
1593,0.7638705,0.7589878,0.07912937
1595,0.7648944,0.7600183,0.08156469
1597,0.7648944,0.7600183,0.08156469
1600,0.7620752,0.7569224,0.08156469
1602,0.7620752,0.7569224,0.08156469
1604,0.7618184,0.7564052,0.08392937
1607,0.762332,0.7571809,0.08156469
1609,0.762332,0.7571809,0.08156469
1611,0.7620752,0.7571809,0.08392937
1614,0.7620752,0.7571809,0.08392937
1616,0.7620752,0.7569224,0.08392937
1618,0.7620752,0.7569224,0.08392937
1622,0.7412493,0.7354187,0.08622923
1624,0.7238871,0.7173703,0.08846933
1626,0.7238871,0.7173703,0.08846933
1629,0.7140896,0.708588,0.08156469
1631,0.7140896,0.708588,0.08156469
1633,0.7179157,0.7129927,0.07401875
1636,0.7260464,0.7219925,0.06852804
1638,0.7260464,0.7219925,0.06852804
1640,0.7295417,0.7263159,0.06852804
1643,0.7295417,0.7263159,0.06852804
1645,0.7380747,0.7340872,0.06852804
1647,0.7380747,0.7340872,0.06852804
1650,0.7420408,0.7380747,0.07132626
1652,0.7483428,0.7444103,0.07401875
1654,0.7483428,0.7444103,0.07401875
1657,0.7556288,0.751474,0.07661668
1659,0.7556288,0.751474,0.07661668
1661,0.7587299,0.7540734,0.07912937
1664,0.7587299,0.7540734,0.07912937
1667,0.7648944,0.7595032,0.08392937
1669,0.7671934,0.7620752,0.08156469
1671,0.7671934,0.7620752,0.08156469
1674,0.770502,0.7651502,0.08392937
1676,0.770502,0.7651502,0.08392937
1678,0.7720242,0.7664279,0.08846933
1681,0.772531,0.7669383,0.08846933
1683,0.772531,0.7669383,0.08846933
1685,0.7735435,0.7671934,0.09065409
1688,0.7735435,0.7671934,0.09065409
1690,0.7843454,0.7803435,0.07401875
1692,0.7843454,0.7803435,0.07401875
1695,0.7880787,0.7853427,0.0656106
1697,0.7910526,0.7880787,0.06852804
1699,0.7910526,0.7880787,0.06852804
1702,0.7920414,0.7890712,0.06852804
1704,0.7920414,0.7890712,0.06852804
1707,0.680988,0.6728944,0.09278741
1710,0.640108,0.6299395,0.1008706
1712,0.640108,0.6299395,0.1008706
1714,0.6407191,0.6296288,0.1065312
1717,0.6407191,0.6296288,0.1065312
1719,0.6404136,0.6286958,0.1083524
1721,0.6404136,0.6286958,0.1083524
1724,0.6676395,0.6561096,0.1101434
1726,0.6769533,0.6655847,0.1101434
1728,0.6769533,0.6655847,0.1101434
1731,0.6918207,0.6807005,0.1101434
1733,0.6918207,0.6807005,0.1101434
1735,0.7129927,0.7027649,0.1065312
1738,0.7129927,0.7027649,0.1065312
1740,0.7236168,0.7138155,0.1046783
1742,0.7319516,0.7225344,0.1046783
1745,0.7319516,0.7225344,0.1046783
1747,0.7480813,0.7393991,0.1027921
1750,0.7480813,0.7393991,0.1027921
1752,0.7535542,0.745461,0.09891172
1755,0.7620752,0.7540734,0.1008706
1757,0.7620752,0.7540734,0.1008706
1759,0.7651502,0.7574393,0.1008706
1762,0.7651502,0.7574393,0.1008706
1764,0.7702479,0.762332,0.09891172
1766,0.7702479,0.762332,0.09891172
1769,0.7720242,0.7646385,0.09691329
1771,0.7324861,0.7241574,0.1008706
1773,0.7324861,0.7241574,0.1008706
1776,0.717643,0.708588,0.1008706
1778,0.717643,0.708588,0.1008706
1780,0.6781085,0.6679325,0.1046783
1783,0.6632286,0.652221,0.1046783
1785,0.6632286,0.652221,0.1046783
1787,0.6564078,0.645587,0.1065312
1790,0.6564078,0.645587,0.1065312
1793,0.6608641,0.6504185,0.1046783
1795,0.6608641,0.6504185,0.1046783
1798,0.6561096,0.6449805,0.1065312
1800,0.6483091,0.6373509,0.1065312
1802,0.6422443,0.6305605,0.1083524
1805,0.6507192,0.6391903,0.1083524
1807,0.6507192,0.6391903,0.1083524
1809,0.6570037,0.64589,0.1065312
1812,0.6726035,0.6623429,0.1046783
1814,0.6726035,0.6623429,0.1046783
1816,0.680988,0.6711472,0.1046783
1819,0.680988,0.6711472,0.1046783
1821,0.6985759,0.6892704,0.1027921
1823,0.6985759,0.6892704,0.1027921
1826,0.7135413,0.7052664,0.1008706
1828,0.7219925,0.7132671,0.09891172
1830,0.7219925,0.7132671,0.09891172
1833,0.7284679,0.719821,0.09891172
1836,0.7284679,0.719821,0.09891172
1838,0.7383398,0.7303458,0.09891172
1840,0.7383398,0.7303458,0.09891172
1843,0.745461,0.7372789,0.09891172
1845,0.747558,0.7396637,0.1008706
1847,0.747558,0.7396637,0.1008706
1850,0.7512136,0.7430948,0.09891172
1852,0.7512136,0.7430948,0.09891172
1854,0.7522548,0.7444103,0.09891172
1857,0.7506924,0.7433581,0.09691329
1859,0.7506924,0.7433581,0.09691329
1861,0.7501709,0.742568,0.09691329
1864,0.7501709,0.742568,0.09691329
1866,0.749388,0.741777,0.09487279
1868,0.749388,0.741777,0.09487279
1871,0.7486043,0.7412493,0.09487279
1873,0.7486043,0.7415132,0.09487279
1875,0.7486043,0.7415132,0.09487279
1879,0.7486043,0.7415132,0.09487279
1881,0.7486043,0.7415132,0.09487279
1883,0.7281993,0.7200928,0.09691329
1886,0.7080355,0.6991359,0.1008706
1888,0.7080355,0.6991359,0.1008706
1890,0.7080355,0.6991359,0.1008706
1893,0.7080355,0.6991359,0.1008706
1895,0.7080355,0.6991359,0.1008706
1897,0.7080355,0.6991359,0.1008706
1900,0.711894,0.7027649,0.1008706
1902,0.7121689,0.7030433,0.1008706
1904,0.7121689,0.7030433,0.1008706
1907,0.6832828,0.6731851,0.1046783
1909,0.6832828,0.6731851,0.1046783
1911,0.6752167,0.6647022,0.1046783
1914,0.6752167,0.6647022,0.1046783
1916,0.6775311,0.667053,0.1046783
1918,0.6792617,0.6688108,0.1065312
1922,0.6792617,0.6688108,0.1065312
1924,0.6858553,0.6755064,0.1065312
1926,0.6858553,0.6755064,0.1065312
1928,0.6935157,0.6835691,0.1046783
1931,0.6982958,0.6887025,0.1046783
1933,0.6982958,0.6887025,0.1046783
1935,0.7041557,0.6946434,0.1027921
1938,0.7041557,0.6946434,0.1027921
1940,0.707759,0.6982958,0.1027921
1942,0.707759,0.6982958,0.1027921
1945,0.7116191,0.7022079,0.1008706
1947,0.7236168,0.7173703,0.08392937
1949,0.7236168,0.7173703,0.08392937
1952,0.7273927,0.7222635,0.07661668
1954,0.7273927,0.7222635,0.07661668
1956,0.7322189,0.7273927,0.07661668
1959,0.7335538,0.7284679,0.07661668
1961,0.7335538,0.7284679,0.07661668
1964,0.7005339,0.6946434,0.08156469
1967,0.7005339,0.6946434,0.08156469
1969,0.6878495,0.6815624,0.08156469
1971,0.6878495,0.6815624,0.08156469
1974,0.6869956,0.6807005,0.08392937
1976,0.694925,0.6884183,0.08622923
1978,0.694925,0.6884183,0.08622923
1981,0.7058211,0.6994157,0.08392937
1983,0.7058211,0.6994157,0.08392937
1985,0.709416,0.7030433,0.08392937
1988,0.7168246,0.7116191,0.07912937
1990,0.7168246,0.7116191,0.07912937
1992,0.7200928,0.7160051,0.07401875
1995,0.7200928,0.7160051,0.07401875
1997,0.7281993,0.7255072,0.06255726
1999,0.7281993,0.7255072,0.06255726
2002,0.7359507,0.7348864,0.04423466
2004,0.7367479,0.7356848,0.05233916
2007,0.7367479,0.7356848,0.05233916
2010,0.7380747,0.7362165,0.05595291
2012,0.7380747,0.7362165,0.05595291
2014,0.7407211,0.7393991,0.05233916
2016,0.7407211,0.7393991,0.05233916
2019,0.7444103,0.7430948,0.04845664
2021,0.7428315,0.7415132,0.05233916
2023,0.7428315,0.7415132,0.05233916
2026,0.7409853,0.7388696,0.05595291
2028,0.7409853,0.7388696,0.05595291
2030,0.7388696,0.7364823,0.06255726
2033,0.7356848,0.7319516,0.07132626
2035,0.7356848,0.7319516,0.07132626
2037,0.7330202,0.7281993,0.07912937
2040,0.7330202,0.7281993,0.07912937
2042,0.7319516,0.7268545,0.08156469
2044,0.7319516,0.7268545,0.08156469
2048,0.7327532,0.7276617,0.07912937
2050,0.7335538,0.7292733,0.07401875
2052,0.7335538,0.7292733,0.07401875
2055,0.7348864,0.7319516,0.06255726
2057,0.7348864,0.7319516,0.06255726
2059,0.7356848,0.733287,0.05934703
2062,0.7354187,0.7330202,0.05934703
2064,0.7354187,0.7330202,0.05934703
2066,0.7346201,0.7316842,0.06255726
2069,0.7346201,0.7316842,0.06255726
2071,0.7330202,0.7295417,0.07132626
2073,0.7330202,0.7295417,0.07132626
2076,0.7327532,0.7284679,0.07132626
2078,0.7138155,0.7083117,0.08156469
2080,0.7138155,0.7083117,0.08156469
2083,0.6985759,0.6923862,0.08622923
2085,0.6985759,0.6923862,0.08622923
2087,0.6673463,0.6587883,0.09487279
2091,0.651921,0.6422443,0.09891172
2093,0.651921,0.6422443,0.09891172
2095,0.644677,0.633656,0.1027921
2098,0.644677,0.633656,0.1027921
2100,0.6486109,0.6373509,0.1065312
2102,0.6486109,0.6373509,0.1065312
2104,0.6608641,0.6495153,0.1083524
2107,0.6679325,0.6567059,0.1101434
2109,0.6679325,0.6567059,0.1101434
2111,0.6829963,0.6714388,0.1101434
2114,0.6829963,0.6714388,0.1101434
2116,0.6901216,0.6789736,0.1101434
2118,0.6901216,0.6789736,0.1101434
2121,0.7002546,0.6889865,0.1101434
2123,0.7035998,0.6923862,0.1119058
2125,0.7035998,0.6923862,0.1119058
2128,0.7121689,0.7027649,0.1027921
2130,0.7121689,0.7027649,0.1027921
2132,0.7168246,0.7088641,0.09691329
2136,0.7233464,0.7170975,0.08392937
2138,0.7233464,0.7170975,0.08392937
2140,0.7287365,0.7225344,0.08846933
2143,0.7287365,0.7225344,0.08846933
2145,0.7306137,0.7244276,0.08846933
2147,0.7306137,0.7244276,0.08846933
2150,0.7322189,0.7252374,0.09278741
2152,0.7324861,0.7255072,0.09278741
2154,0.7324861,0.7255072,0.09278741
2157,0.7330202,0.7252374,0.09487279
2159,0.7330202,0.7252374,0.09487279
2161,0.7330202,0.7252374,0.09691329
2164,0.7375443,0.7319516,0.08392937
2166,0.7375443,0.7319516,0.08392937
2168,0.7393991,0.7346201,0.07912937
2171,0.7393991,0.7346201,0.07912937
2173,0.745461,0.742568,0.06255726
2176,0.745461,0.742568,0.06255726
2179,0.7478197,0.7451985,0.05934703
2181,0.7465102,0.7441474,0.05934703
2183,0.7465102,0.7441474,0.05934703
2185,0.7462481,0.7430948,0.06255726
2188,0.7462481,0.7430948,0.06255726
2190,0.745461,0.742568,0.0656106
2192,0.745461,0.742568,0.0656106
2195,0.7451985,0.7412493,0.07401875
2197,0.7233464,0.7187329,0.07912937
2199,0.7233464,0.7187329,0.07912937
2202,0.6909717,0.6849989,0.08392937
2204,0.6909717,0.6849989,0.08392937
2206,0.6901216,0.6832828,0.08622923
2209,0.6878495,0.6807005,0.09065409
2211,0.6878495,0.6807005,0.09065409
2213,0.6957693,0.6878495,0.09487279
2216,0.6957693,0.6878495,0.09487279
2219,0.6982958,0.6901216,0.09487279
2221,0.6982958,0.6901216,0.09487279
2224,0.6844273,0.675796,0.09891172
2226,0.6632286,0.6531205,0.1027921
2228,0.6632286,0.6531205,0.1027921
2231,0.6658786,0.6555129,0.1046783
2233,0.6658786,0.6555129,0.1046783
2235,0.6688108,0.6578966,0.1083524
2238,0.6477052,0.6351982,0.1119058
2240,0.6477052,0.6351982,0.1119058
2242,0.6391903,0.6258884,0.1136409
2245,0.6391903,0.6258884,0.1136409
2247,0.618656,0.6036074,0.1203313
2249,0.618656,0.6036074,0.1203313
2252,0.6106976,0.5947903,0.1235407
2254,0.5957764,0.5787839,0.1251145
2256,0.5957764,0.5787839,0.1251145
2259,0.5888388,0.5709552,0.1266688
2262,0.5888388,0.5709552,0.1266688
2264,0.5791218,0.5598809,0.1312212
2267,0.5719823,0.5517841,0.1341704
2269,0.5719823,0.5517841,0.1341704
2271,0.5709552,0.5503638,0.1356209
2273,0.5709552,0.5503638,0.1356209
2276,0.5682068,0.5467969,0.1384764
2278,0.5682068,0.5467969,0.1384764
2280,0.5671728,0.5453635,0.1398823
2283,0.5647526,0.5417637,0.1412742
2285,0.5647526,0.5417637,0.1412742
2287,0.5831623,0.5612772,0.1398823
2290,0.5831623,0.5612772,0.1398823
2292,0.6097356,0.589503,0.1384764
2294,0.6097356,0.589503,0.1384764
2297,0.6110179,0.5908293,0.1384764
2299,0.6129363,0.5924829,0.1384764
2301,0.6129363,0.5924829,0.1384764
2305,0.628073,0.6081289,0.1384764
2307,0.628073,0.6081289,0.1384764
2309,0.6510199,0.6324196,0.1370561
2312,0.6599753,0.6416347,0.1370561
2314,0.6599753,0.6416347,0.1370561
2316,0.6824232,0.6655847,0.1341704
2319,0.6824232,0.6655847,0.1341704
2321,0.6935157,0.6772422,0.1341704
2323,0.6935157,0.6772422,0.1341704
2326,0.7107937,0.6954879,0.1312212
2328,0.717643,0.7024865,0.1312212
2330,0.717643,0.7024865,0.1312212
2333,0.7311491,0.7200928,0.1136409
2335,0.7311491,0.7200928,0.1136409
2337,0.7367479,0.7271236,0.1065312
2340,0.7409853,0.7322189,0.1027921
2342,0.7409853,0.7322189,0.1027921
2344,0.7428315,0.7343537,0.1027921
2348,0.7428315,0.7343537,0.1027921
2350,0.7436213,0.7351527,0.1027921
2352,0.7436213,0.7351527,0.1027921
2355,0.7444103,0.7359507,0.1046783
2357,0.711069,0.7038778,0.09065409
2359,0.711069,0.7038778,0.09065409
2361,0.6991359,0.6935157,0.08156469
2364,0.6991359,0.6935157,0.08156469
2366,0.6996954,0.694925,0.07401875
2368,0.6996954,0.694925,0.07401875
2371,0.7010924,0.697174,0.07132626
2373,0.7030433,0.6988559,0.07401875
2375,0.7030433,0.6988559,0.07401875
2378,0.7038778,0.699975,0.07132626
2380,0.7038778,0.699975,0.07132626
2382,0.6708556,0.6649964,0.08156469
2385,0.6587883,0.651921,0.08392937
2387,0.6587883,0.651921,0.08392937
2390,0.6617518,0.6543178,0.09065409
2393,0.6617518,0.6543178,0.09065409
2395,0.6629335,0.6552143,0.09278741
2397,0.6629335,0.6552143,0.09278741
2400,0.6388841,0.629007,0.09891172
2402,0.6296288,0.6192883,0.1027921
2404,0.6296288,0.6192883,0.1027921
2407,0.6410245,0.633656,0.08846933
2409,0.6410245,0.633656,0.08846933
2411,0.6452838,0.6385778,0.08392937
2414,0.6596788,0.65342,0.08156469
2416,0.6596788,0.65342,0.08156469
2418,0.6649964,0.6587883,0.08156469
2421,0.6649964,0.6587883,0.08156469
2423,0.6749268,0.6685182,0.08622923
2425,0.6749268,0.6685182,0.08622923
2428,0.6786853,0.6720214,0.08622923
2430,0.6889865,0.6835691,0.07912937
2433,0.6889865,0.6835691,0.07912937
2436,0.6923862,0.688134,0.07401875
2438,0.6954879,0.6915378,0.07132626
2440,0.7002546,0.697174,0.0656106
2443,0.707759,0.7058211,0.05934703
2445,0.707759,0.7058211,0.05934703
2447,0.7121689,0.7102429,0.05595291
2449,0.7121689,0.7102429,0.05595291
2452,0.7179157,0.7170975,0.04423466
2454,0.7179157,0.7170975,0.04423466
2456,0.7206361,0.7200928,0.04423466
2459,0.7249676,0.7244276,0.04423466
2461,0.7249676,0.7244276,0.04423466
2463,0.7311491,0.7311491,0.03956468
2466,0.7311491,0.7311491,0.03956468
2468,0.733287,0.733287,0.04423466
2470,0.733287,0.733287,0.04423466
2473,0.7362165,0.7362165,0.03956468
2476,0.7370135,0.7370135,0.03956468
2478,0.7370135,0.7370135,0.03956468
2481,0.7184606,0.7173703,0.04845664
2483,0.7184606,0.7173703,0.04845664
2485,0.6898379,0.6864257,0.0656106
2488,0.6714388,0.6661724,0.07661668
2490,0.6714388,0.6661724,0.07661668
2492,0.6434618,0.6351982,0.09065409
2495,0.6434618,0.6351982,0.09065409
2497,0.6299395,0.6196041,0.1008706
2499,0.6299395,0.6196041,0.1008706
2502,0.608772,0.5951191,0.1119058
2504,0.6006827,0.5858405,0.1170339
2506,0.6006827,0.5858405,0.1170339
2509,0.6205508,0.605226,0.1219466
2511,0.6205508,0.605226,0.1219466
2513,0.6277614,0.6119779,0.1235407
2516,0.6590852,0.6471007,0.1101434
2519,0.6590852,0.6471007,0.1101434
2521,0.6641131,0.65342,0.1065312
2524,0.6641131,0.65342,0.1065312
2526,0.6590852,0.6477052,0.1083524
2528,0.6590852,0.6477052,0.1083524
2531,0.6649964,0.6546168,0.1027921
2533,0.6734757,0.6641131,0.09891172
2535,0.6734757,0.6641131,0.09891172
2537,0.6887025,0.6801254,0.09691329
2540,0.6887025,0.6801254,0.09691329
2542,0.6954879,0.6869956,0.09691329
2544,0.6878495,0.6783969,0.1008706
2547,0.6878495,0.6783969,0.1008706
2549,0.6772422,0.6667597,0.1065312
2551,0.6772422,0.6667597,0.1065312
2554,0.65342,0.6410245,0.1119058
2556,0.65342,0.6410245,0.1119058
2558,0.6410245,0.6274496,0.1170339
2562,0.6308707,0.6161205,0.1203313
2564,0.6308707,0.6161205,0.1203313
2566,0.6308707,0.6161205,0.1203313
2569,0.6308707,0.6161205,0.1203313
2571,0.6183397,0.6042554,0.1136409
2573,0.6183397,0.6042554,0.1136409
2576,0.6045791,0.5908293,0.1153499
2578,0.5831623,0.5675176,0.1170339
2580,0.5831623,0.5675176,0.1170339
2583,0.5740312,0.55778,0.1170339
2585,0.5740312,0.55778,0.1170339
2587,0.5797972,0.5654452,0.1119058
2590,0.590498,0.5784457,0.1046783
2592,0.590498,0.5784457,0.1046783
2594,0.5961047,0.5855064,0.1008706
2597,0.5961047,0.5855064,0.1008706
2599,0.5934729,0.5821548,0.1008706
2601,0.5934729,0.5821548,0.1008706
2605,0.5885065,0.577091,0.1027921
2607,0.6100564,0.598725,0.1046783
2609,0.6100564,0.598725,0.1046783
2612,0.6180231,0.6065179,0.1065312
2614,0.6180231,0.6065179,0.1065312
2616,0.6318005,0.6224399,0.09691329
2619,0.65342,0.646193,0.08622923
2621,0.65342,0.646193,0.08622923
2623,0.6720214,0.6652907,0.08622923
2625,0.6720214,0.6652907,0.08622923
2628,0.6789736,0.6723125,0.08622923
2630,0.6789736,0.6723125,0.08622923
2632,0.6861406,0.680413,0.08156469
2635,0.697174,0.6926687,0.07401875
2637,0.697174,0.6926687,0.07401875
2639,0.7030433,0.6980155,0.07661668
2642,0.7030433,0.6980155,0.07661668
2644,0.7055438,0.7005339,0.07912937
2647,0.7055438,0.7005339,0.07912937
2650,0.7105184,0.7066523,0.07401875
2652,0.7135413,0.7096917,0.07401875
2654,0.7135413,0.7096917,0.07401875
2657,0.7151849,0.7102429,0.07912937
2659,0.7151849,0.7102429,0.07912937
2661,0.7173703,0.711894,0.07912937
2664,0.7179157,0.7121689,0.08392937
2666,0.7179157,0.7121689,0.08392937
2668,0.719821,0.7129927,0.09065409
2671,0.719821,0.7129927,0.09065409
2673,0.7195491,0.7124436,0.09278741
2675,0.7195491,0.7124436,0.09278741
2678,0.7200928,0.7124436,0.09691329
2680,0.6827098,0.6723125,0.1065312
2682,0.6827098,0.6723125,0.1065312
2685,0.6688108,0.6575991,0.1101434
2688,0.6688108,0.6575991,0.1101434
2690,0.6708556,0.661456,0.1027921
2693,0.6714388,0.6629335,0.09891172
2695,0.6714388,0.6629335,0.09891172
2697,0.6798376,0.6708556,0.1008706
2700,0.6798376,0.6708556,0.1008706
2702,0.6827098,0.6734757,0.1027921
2704,0.6827098,0.6734757,0.1027921
2707,0.6867107,0.6772422,0.1027921
2709,0.6884183,0.6783969,0.1065312
2711,0.6884183,0.6783969,0.1065312
2713,0.6932335,0.6824232,0.1101434
2716,0.6932335,0.6824232,0.1101434
2718,0.6957693,0.6844273,0.1136409
2720,0.7008132,0.6898379,0.1083524
2723,0.7008132,0.6898379,0.1083524
2725,0.7024865,0.6935157,0.1046783
2727,0.7024865,0.6935157,0.1046783
2731,0.7072059,0.6991359,0.09487279
2733,0.7072059,0.6991359,0.09487279
2735,0.709416,0.7027649,0.09065409
2738,0.7138155,0.708588,0.08156469
2740,0.7138155,0.708588,0.08156469
2742,0.717643,0.7132671,0.07401875
2745,0.717643,0.7132671,0.07401875
2747,0.7209076,0.7170975,0.07132626
2749,0.7209076,0.7170975,0.07132626
2752,0.7260464,0.7225344,0.0656106
2754,0.7273927,0.7241574,0.0656106
2756,0.7273927,0.7241574,0.0656106
2759,0.7292733,0.7265852,0.06255726
2761,0.7292733,0.7265852,0.06255726
2763,0.7300779,0.7273927,0.06255726
2766,0.7306137,0.7287365,0.05934703
2768,0.7306137,0.7287365,0.05934703
2770,0.7324861,0.7300779,0.05934703
2774,0.7324861,0.7300779,0.05934703
2776,0.7343537,0.7322189,0.05934703
2778,0.7343537,0.7322189,0.05934703
2781,0.7343537,0.7314168,0.0656106
2783,0.7346201,0.7298098,0.07661668
2785,0.7346201,0.7298098,0.07661668
2788,0.7354187,0.7311491,0.07661668
2790,0.7354187,0.7311491,0.07661668
2792,0.7372789,0.7327532,0.07661668
2794,0.7386047,0.7340872,0.07401875
2797,0.7386047,0.7340872,0.07401875
2799,0.7399282,0.7364823,0.06852804
2801,0.7399282,0.7364823,0.06852804
2804,0.7409853,0.7372789,0.07132626
2806,0.7409853,0.7372789,0.07132626
2808,0.7459858,0.7428315,0.0656106
2811,0.7491269,0.7465102,0.06255726
2813,0.7491269,0.7465102,0.06255726
2816,0.7501709,0.7478197,0.05934703
2819,0.7501709,0.7478197,0.05934703
2821,0.7522548,0.7501709,0.06255726
2823,0.7530347,0.7512136,0.05934703
2826,0.7530347,0.7512136,0.05934703
2828,0.7545922,0.7525149,0.05934703
2830,0.7545922,0.7525149,0.05934703
2833,0.7561465,0.7540734,0.05934703
2835,0.7561465,0.7540734,0.05934703
2837,0.7553698,0.7525149,0.0656106
2840,0.7525149,0.747558,0.07912937
2842,0.7525149,0.747558,0.07912937
2844,0.7509531,0.7459858,0.08392937
2847,0.7509531,0.7459858,0.08392937
2849,0.7522548,0.7465102,0.08392937
2851,0.7522548,0.7465102,0.08392937
2854,0.7519946,0.7467723,0.08622923
2856,0.7525149,0.747558,0.07912937
2859,0.7525149,0.747558,0.07912937
2862,0.7522548,0.747558,0.08156469
2864,0.7522548,0.747558,0.08156469
2866,0.7444103,0.7383398,0.09065409
2869,0.7404569,0.7335538,0.09278741
2871,0.7404569,0.7335538,0.09278741
2873,0.7393991,0.7324861,0.09278741
2876,0.7393991,0.7324861,0.09278741
2878,0.7346201,0.7265852,0.09891172
2880,0.7346201,0.7265852,0.09891172
2882,0.7311491,0.7225344,0.1008706
2885,0.7260464,0.7160051,0.1101434
2887,0.7260464,0.7160051,0.1101434
2889,0.7271236,0.7170975,0.1083524
2892,0.7271236,0.7170975,0.1083524
2894,0.7276617,0.7181882,0.1065312
2896,0.7263159,0.7165515,0.1101434
2899,0.7263159,0.7165515,0.1101434
2902,0.7249676,0.7132671,0.1170339
2904,0.7249676,0.7132671,0.1170339
2907,0.7219925,0.708588,0.1251145
2909,0.7219925,0.708588,0.1251145
2911,0.7206361,0.7069291,0.1266688
2914,0.7005339,0.6847132,0.132704
2916,0.7005339,0.6847132,0.132704
2918,0.66998,0.6507192,0.1440177
2921,0.66998,0.6507192,0.1440177
2923,0.6711472,0.6537194,0.1370561
2925,0.6711472,0.6537194,0.1370561
2928,0.6714388,0.6549156,0.132704
2930,0.6841414,0.6711472,0.1186941
2932,0.6841414,0.6711472,0.1186941
2935,0.688134,0.6766641,0.1153499
2937,0.688134,0.6766641,0.1153499
2939,0.6772422,0.6649964,0.1153499
2942,0.6549156,0.6398023,0.1235407
2945,0.6549156,0.6398023,0.1235407
2947,0.6590852,0.6431577,0.1297215
2950,0.6590852,0.6431577,0.1297215
2952,0.6638185,0.64589,0.1384764
2954,0.6638185,0.64589,0.1384764
2957,0.6731851,0.6567059,0.132704
2959,0.6861406,0.6711472,0.1266688
2961,0.6861406,0.6711472,0.1266688
2964,0.6937978,0.6786853,0.1282043
2966,0.6937978,0.6786853,0.1282043
2968,0.7038778,0.688134,0.1341704
2970,0.7069291,0.6906884,0.1356209
2973,0.7069291,0.6906884,0.1356209
2975,0.711069,0.6935157,0.1412742
2977,0.711069,0.6935157,0.1412742
2980,0.7140896,0.6963314,0.1426525
2982,0.7140896,0.6963314,0.1426525
2984,0.7179157,0.6996954,0.14537
2988,0.7200928,0.7013714,0.1480375
2990,0.7200928,0.7013714,0.1480375
2992,0.7225344,0.7033216,0.1493534
2995,0.7225344,0.7033216,0.1493534
2997,0.7230757,0.7033216,0.1506579
2999,0.7228051,0.7033216,0.1519511
3002,0.7228051,0.7033216,0.1519511
3004,0.7233464,0.7041557,0.1506579
3006,0.7233464,0.7041557,0.1506579
3009,0.7241574,0.7047113,0.1519511
3011,0.7241574,0.7047113,0.1519511
3013,0.7246976,0.7055438,0.1493534
3016,0.7249676,0.7060983,0.1493534
3018,0.7249676,0.7060983,0.1493534
3020,0.7255072,0.7066523,0.1493534
3023,0.7255072,0.7066523,0.1493534
3025,0.7230757,0.7052664,0.1480375
3027,0.7230757,0.7052664,0.1480375
3031,0.7222635,0.7047113,0.14537
3033,0.7217214,0.7044336,0.1440177
3035,0.7217214,0.7044336,0.1440177
3038,0.7002546,0.6821364,0.1426525
3040,0.7002546,0.6821364,0.1426525
3042,0.6824232,0.6638185,0.1440177
3045,0.6673463,0.6480073,0.1440177
3047,0.6673463,0.6480073,0.1440177
3049,0.6617518,0.6428534,0.1412742
3052,0.6617518,0.6428534,0.1412742
3054,0.6617518,0.6440698,0.1398823
3056,0.6617518,0.6440698,0.1398823
3058,0.6638185,0.64589,0.1370561
3061,0.6691033,0.652221,0.1356209
3063,0.6691033,0.652221,0.1356209
3065,0.6720214,0.6555129,0.1356209
3068,0.6720214,0.6555129,0.1356209
3070,0.6766641,0.6599753,0.132704
3073,0.6778198,0.661456,0.132704
3076,0.6778198,0.661456,0.132704
3078,0.680988,0.6649964,0.1312212
3080,0.680988,0.6649964,0.1312212
3083,0.6829963,0.6667597,0.1312212
3085,0.6829963,0.6667597,0.1312212
3087,0.6861406,0.6723125,0.1235407
3090,0.6884183,0.6766641,0.1136409
3092,0.6884183,0.6766641,0.1136409
3094,0.6892704,0.6781085,0.1101434
3097,0.6892704,0.6781085,0.1101434
3099,0.6909717,0.6792617,0.1136409
3101,0.6909717,0.6792617,0.1136409
3104,0.6912548,0.6792617,0.1153499
3106,0.694925,0.6852845,0.1065312
3108,0.694925,0.6852845,0.1065312
3111,0.6960504,0.6869956,0.1046783
3113,0.6960504,0.6869956,0.1046783
3116,0.7038778,0.6960504,0.09487279
3119,0.7091401,0.7027649,0.08846933
3121,0.7091401,0.7027649,0.08846933
3123,0.711894,0.7060983,0.08392937
3126,0.711894,0.7060983,0.08392937
3128,0.7135413,0.7083117,0.08156469
3130,0.7135413,0.7083117,0.08156469
3133,0.721179,0.7168246,0.07912937
3135,0.7268545,0.7233464,0.07401875
3137,0.7268545,0.7233464,0.07401875
3140,0.7295417,0.7260464,0.07132626
3142,0.7295417,0.7260464,0.07132626
3144,0.7316842,0.7281993,0.06852804
3146,0.7348864,0.7314168,0.0656106
3149,0.7348864,0.7314168,0.0656106
3151,0.7370135,0.7335538,0.0656106
3153,0.7370135,0.7335538,0.0656106
3156,0.7370135,0.7343537,0.0656106
3159,0.7370135,0.7343537,0.0656106
3161,0.7375443,0.7348864,0.06255726
3164,0.7354187,0.7330202,0.06255726
3166,0.7354187,0.7330202,0.06255726
3168,0.7322189,0.7300779,0.06255726
3171,0.7322189,0.7300779,0.06255726
3173,0.7292733,0.7271236,0.06255726
3175,0.7249676,0.7225344,0.06255726
3178,0.7249676,0.7225344,0.06255726
3180,0.7233464,0.7217214,0.05595291
3182,0.7233464,0.7217214,0.05595291
3185,0.7219925,0.7200928,0.05595291
3187,0.7219925,0.7200928,0.05595291
3189,0.7170975,0.7151849,0.05595291
3192,0.7154584,0.7135413,0.05595291
3194,0.7154584,0.7135413,0.05595291
3196,0.7091401,0.707759,0.05233916
3200,0.7091401,0.707759,0.05233916
3202,0.7069291,0.7060983,0.05233916
3204,0.7069291,0.7060983,0.05233916
3207,0.7027649,0.7016503,0.05233916
3209,0.7005339,0.6996954,0.04845664
3211,0.7005339,0.6996954,0.04845664
3214,0.6963314,0.6957693,0.04845664
3216,0.6963314,0.6957693,0.04845664
3218,0.6940797,0.6937978,0.04423466
3221,0.6889865,0.6887025,0.04845664
3223,0.6889865,0.6887025,0.04845664
3225,0.6841414,0.6838553,0.04845664
3228,0.6841414,0.6838553,0.04845664
3230,0.6827098,0.6821364,0.04423466
3232,0.6827098,0.6821364,0.04423466
3234,0.680413,0.680413,0.04423466
3237,0.6792617,0.6786853,0.04423466
3239,0.6792617,0.6786853,0.04423466
3241,0.6769533,0.6769533,0.03956468
3245,0.6769533,0.6769533,0.03956468
3247,0.6769533,0.6769533,0.03956468
3249,0.6769533,0.6769533,0.03956468
3252,0.6769533,0.6769533,0.03956468
3254,0.6743467,0.6728944,0.05595291
3256,0.6743467,0.6728944,0.05595291
3259,0.6740565,0.6723125,0.05934703
3261,0.6740565,0.6723125,0.05934703
3263,0.6737661,0.6726035,0.05595291
3266,0.6737661,0.6723125,0.05934703
3268,0.6737661,0.6723125,0.05934703
3270,0.6708556,0.6685182,0.06255726
3273,0.6708556,0.6685182,0.06255726
3275,0.6682253,0.6652907,0.06852804
3277,0.6658786,0.660568,0.07912937
3280,0.6658786,0.660568,0.07912937
3282,0.6647022,0.6581939,0.09065409
3284,0.6647022,0.6581939,0.09065409
3288,0.6714388,0.6655847,0.08622923
3290,0.6714388,0.6655847,0.08622923
3292,0.6807005,0.675796,0.08392937
3295,0.6841414,0.6792617,0.08392937
3297,0.6841414,0.6792617,0.08392937
3299,0.6841414,0.6778198,0.09065409
3302,0.6841414,0.6778198,0.09065409
3304,0.6835691,0.6772422,0.09065409
3306,0.6835691,0.6772422,0.09065409
3309,0.6818494,0.6737661,0.1008706
3311,0.6812752,0.6723125,0.1027921
3313,0.6812752,0.6723125,0.1027921
3316,0.6832828,0.6734757,0.1101434
3318,0.6832828,0.6734757,0.1101434
3320,0.6661724,0.6540186,0.1186941
3322,0.6513204,0.6376578,0.1219466
3325,0.6513204,0.6376578,0.1219466
3328,0.6391903,0.6240098,0.1266688
3330,0.6391903,0.6240098,0.1266688
3333,0.6388841,0.6233823,0.1282043
3335,0.6388841,0.6233823,0.1282043
3337,0.6428534,0.6268256,0.1297215
3340,0.645587,0.6296288,0.1297215
3342,0.645587,0.6296288,0.1297215
3344,0.6489125,0.6330382,0.1297215
3347,0.6489125,0.6330382,0.1297215
3349,0.652521,0.6370438,0.1297215
3351,0.6567059,0.6410245,0.1297215
3354,0.6567059,0.6410245,0.1297215
3356,0.661456,0.6452838,0.1312212
3358,0.661456,0.6452838,0.1312212
3361,0.6620474,0.6464956,0.1297215
3363,0.6620474,0.6464956,0.1297215
3365,0.6691033,0.65342,0.1297215
3368,0.6711472,0.6555129,0.1297215
3371,0.6711472,0.6555129,0.1297215
3373,0.6746368,0.6599753,0.1266688
3376,0.6746368,0.6599753,0.1266688
3378,0.6778198,0.6632286,0.1266688
3380,0.6778198,0.6632286,0.1266688
3383,0.6789736,0.6647022,0.1282043
3385,0.680413,0.6655847,0.1266688
3387,0.680413,0.6655847,0.1266688
3390,0.6815624,0.6693957,0.1203313
3392,0.6815624,0.6693957,0.1203313
3394,0.6832828,0.6728944,0.1083524
3397,0.6838553,0.6731851,0.1083524
3399,0.6838553,0.6731851,0.1083524
3401,0.6832828,0.6728944,0.1065312
3403,0.6832828,0.6728944,0.1065312
3406,0.6841414,0.6746368,0.1008706
3408,0.6841414,0.6746368,0.1008706
3410,0.6847132,0.6772422,0.09487279
3414,0.6844273,0.6763749,0.09691329
3416,0.6844273,0.6763749,0.09691329
3418,0.6829963,0.6749268,0.09691329
3421,0.6829963,0.6749268,0.09691329
3423,0.6818494,0.6728944,0.1008706
3425,0.6792617,0.6693957,0.1065312
3428,0.6792617,0.6693957,0.1065312
3430,0.6801254,0.6711472,0.09891172
3432,0.6801254,0.6711472,0.09891172
3435,0.680988,0.6734757,0.09065409
3437,0.680988,0.6734757,0.09065409
3439,0.680413,0.6728944,0.09487279
3442,0.6801254,0.6723125,0.09691329
3444,0.6801254,0.6723125,0.09691329
3446,0.6829963,0.6766641,0.08846933
3449,0.6829963,0.6766641,0.08846933
3451,0.6841414,0.6783969,0.08392937
3453,0.6847132,0.6792617,0.08156469
3457,0.6847132,0.6792617,0.08156469
3459,0.6847132,0.6792617,0.08156469
3461,0.6847132,0.6792617,0.08156469
3464,0.6855699,0.680413,0.08156469
3466,0.6855699,0.680413,0.08156469
3468,0.6861406,0.6812752,0.08156469
3471,0.6864257,0.6818494,0.07661668
3473,0.6864257,0.6818494,0.07661668
3475,0.6841414,0.6792617,0.07912937
3478,0.6841414,0.6792617,0.07912937
3480,0.6827098,0.6769533,0.08622923
3482,0.6827098,0.6769533,0.08622923
3485,0.6812752,0.6740565,0.09278741
3487,0.6821364,0.6755064,0.08846933
3489,0.6821364,0.6755064,0.08846933
3491,0.6835691,0.6778198,0.08392937
3494,0.6835691,0.6778198,0.08392937
3496,0.6821364,0.6760855,0.08846933
3499,0.680988,0.6734757,0.09278741
3502,0.680988,0.6734757,0.09278741
3504,0.6795497,0.6717301,0.09691329
3506,0.6795497,0.6717301,0.09691329
3509,0.6789736,0.6705639,0.1008706
3511,0.6789736,0.6705639,0.1008706
3513,0.6789736,0.6705639,0.1008706
3516,0.6792617,0.6714388,0.09691329
3518,0.6792617,0.6714388,0.09691329
3520,0.6789736,0.6708556,0.09487279
3523,0.6789736,0.6708556,0.09487279
3525,0.6783969,0.6702721,0.09691329
3527,0.6789736,0.6693957,0.1027921
3530,0.6789736,0.6693957,0.1027921
3532,0.6792617,0.6688108,0.1083524
3534,0.6792617,0.6688108,0.1083524
3537,0.6795497,0.6685182,0.1119058
3539,0.6795497,0.6685182,0.1119058
3542,0.6798376,0.6685182,0.1136409
3545,0.6812752,0.6702721,0.1119058
3547,0.6812752,0.6702721,0.1119058
3549,0.6824232,0.6720214,0.1065312
3552,0.6824232,0.6720214,0.1065312
3554,0.6818494,0.6723125,0.1046783
3556,0.6818494,0.6723125,0.1046783
3559,0.6812752,0.6708556,0.1065312
3561,0.680413,0.6696879,0.1101434
3563,0.680413,0.6696879,0.1101434
3566,0.6832828,0.6737661,0.1046783
3568,0.6832828,0.6737661,0.1046783
3570,0.687565,0.6781085,0.1008706
3573,0.6887025,0.6792617,0.1046783
3575,0.6887025,0.6792617,0.1046783
3577,0.6887025,0.6786853,0.1101434
3579,0.6887025,0.6786853,0.1101434
3582,0.688134,0.6772422,0.1119058
3585,0.688134,0.6772422,0.1119058
3587,0.6872803,0.6769533,0.1083524
3590,0.6872803,0.6775311,0.1027921
3592,0.6872803,0.6775311,0.1027921
3594,0.6864257,0.6786853,0.09691329
3597,0.6864257,0.6786853,0.09691329
3599,0.6867107,0.6783969,0.1008706
3601,0.6864257,0.6778198,0.1008706
3604,0.6864257,0.6778198,0.1008706
3606,0.6844273,0.6755064,0.1046783
3608,0.6832828,0.6734757,0.1065312
3611,0.6821364,0.6720214,0.1065312
3613,0.6821364,0.6720214,0.1065312
3615,0.6835691,0.6726035,0.1119058
3618,0.6835691,0.6728944,0.1101434
3620,0.6835691,0.6728944,0.1101434
3622,0.6818494,0.6708556,0.1136409
3625,0.6818494,0.6708556,0.1136409
3628,0.6815624,0.6696879,0.1136409
3630,0.680988,0.6691033,0.1153499
3633,0.680988,0.6691033,0.1153499
3635,0.680988,0.6688108,0.1136409
3637,0.680988,0.6688108,0.1136409
3640,0.6775311,0.6661724,0.1153499
3642,0.6775311,0.6661724,0.1153499
3644,0.6766641,0.6644077,0.1136409
3647,0.6781085,0.6667597,0.1136409
3649,0.6781085,0.6667597,0.1136409
3651,0.6786853,0.667053,0.1136409
3654,0.6792617,0.6673463,0.1136409
3656,0.6587883,0.6464956,0.1153499
3658,0.6587883,0.6464956,0.1153499
3661,0.6419396,0.6293179,0.1153499
3663,0.6351982,0.6221254,0.1170339
3665,0.6351982,0.6221254,0.1170339
3667,0.6321102,0.6189722,0.1170339
3671,0.6321102,0.6189722,0.1170339
3673,0.6330382,0.6218109,0.1083524
3675,0.6361217,0.6265134,0.1008706
3678,0.6361217,0.6265134,0.1008706
3680,0.6428534,0.633656,0.09891172
3682,0.6428534,0.633656,0.09891172
3685,0.644677,0.635814,0.09691329
3687,0.644677,0.635814,0.09691329
3689,0.6477052,0.6388841,0.09691329
3692,0.6516207,0.6425489,0.09691329
3694,0.6516207,0.6425489,0.09691329
3696,0.6546168,0.6449805,0.1008706
3699,0.6546168,0.6449805,0.1008706
3701,0.6578966,0.6477052,0.1027921
3703,0.661456,0.6510199,0.1065312
3706,0.661456,0.6510199,0.1065312
3708,0.6629335,0.6516207,0.1083524
3710,0.6629335,0.6516207,0.1083524
3714,0.6644077,0.6528208,0.1119058
3716,0.6644077,0.6528208,0.1119058
3718,0.6649964,0.6528208,0.1153499
3721,0.6673463,0.6549156,0.1153499
3723,0.6673463,0.6549156,0.1153499
3725,0.6691033,0.6561096,0.1186941
3728,0.6691033,0.6561096,0.1186941
3730,0.6714388,0.6584912,0.1203313
3732,0.6731851,0.6596788,0.1203313
3735,0.6731851,0.6596788,0.1203313
3737,0.6737661,0.6596788,0.1235407
3739,0.6737661,0.6596788,0.1235407
3742,0.6737661,0.6599753,0.1251145
3744,0.6737661,0.6599753,0.1251145
3746,0.6752167,0.660568,0.1251145
3749,0.6760855,0.6611602,0.1266688
3751,0.6760855,0.6611602,0.1266688
3753,0.6783969,0.6632286,0.1297215
3756,0.6783969,0.6632286,0.1297215
3759,0.6795497,0.6641131,0.1297215
3761,0.6795497,0.6641131,0.1297215
3763,0.6812752,0.6658786,0.1312212
3766,0.6818494,0.6658786,0.1312212
3768,0.6818494,0.6658786,0.1312212
3770,0.6812752,0.6658786,0.1297215
3773,0.6812752,0.6658786,0.1297215
3775,0.6827098,0.6667597,0.1312212
3777,0.6838553,0.6679325,0.1312212
3780,0.6838553,0.6679325,0.1312212
3782,0.6841414,0.6685182,0.132704
3784,0.6841414,0.6685182,0.132704
3787,0.6849989,0.6688108,0.1312212
3789,0.6849989,0.6688108,0.1312212
3791,0.688134,0.6720214,0.132704
3794,0.6889865,0.6728944,0.1312212
3796,0.6889865,0.6728944,0.1312212
3799,0.6895542,0.6740565,0.132704
3802,0.6895542,0.6740565,0.132704
3804,0.6898379,0.6746368,0.1312212
3806,0.690405,0.6752167,0.1297215
3809,0.690405,0.6752167,0.1297215
3811,0.690405,0.6755064,0.1297215
3813,0.690405,0.6755064,0.1297215
3816,0.690405,0.6755064,0.1282043
3818,0.690405,0.6755064,0.1282043
3820,0.6906884,0.6755064,0.1297215
3823,0.6887025,0.6746368,0.1266688
3825,0.6887025,0.6746368,0.1266688
3827,0.688134,0.6737661,0.1266688
3830,0.688134,0.6737661,0.1266688
3832,0.6869956,0.6728944,0.1251145
3834,0.6869956,0.6728944,0.1251145
3837,0.6855699,0.6717301,0.1235407
3840,0.6838553,0.6702721,0.1235407
3842,0.6838553,0.6702721,0.1235407
3844,0.6626383,0.6480073,0.1251145
3847,0.6626383,0.6480073,0.1251145
3849,0.6581939,0.6434618,0.1251145
3851,0.6543178,0.640108,0.1251145
3854,0.6543178,0.640108,0.1251145
3856,0.6513204,0.6367366,0.1235407
3858,0.6513204,0.6367366,0.1235407
3861,0.652521,0.6382713,0.1235407
3863,0.652521,0.6382713,0.1235407
3865,0.6549156,0.6407191,0.1235407
3868,0.6570037,0.6422443,0.1235407
3870,0.6570037,0.6422443,0.1235407
3872,0.660568,0.6471007,0.1235407
3875,0.660568,0.6471007,0.1235407
3877,0.6632286,0.649214,0.1219466
3879,0.6682253,0.6561096,0.1136409
3883,0.6682253,0.6561096,0.1136409
3885,0.675796,0.6664661,0.1027921
3887,0.675796,0.6664661,0.1027921
3890,0.6781085,0.6688108,0.1027921
3892,0.6781085,0.6688108,0.1027921
3894,0.6812752,0.6720214,0.1027921
3897,0.6829963,0.6737661,0.1046783
3899,0.6829963,0.6737661,0.1046783
3901,0.6844273,0.6743467,0.1046783
3904,0.6844273,0.6743467,0.1046783
3906,0.6898379,0.680988,0.1027921
3908,0.6937978,0.6855699,0.09691329
3911,0.6937978,0.6855699,0.09691329
3913,0.6974546,0.6892704,0.09691329
3915,0.6974546,0.6892704,0.09691329
3918,0.6991359,0.6912548,0.09691329
3920,0.6991359,0.6912548,0.09691329
3922,0.7005339,0.6915378,0.1008706
3926,0.7016503,0.6921035,0.1027921
3928,0.7016503,0.6921035,0.1027921
3930,0.7038778,0.6954879,0.09891172
3932,0.7038778,0.6954879,0.09891172
3935,0.7069291,0.7002546,0.09065409
3937,0.7069291,0.7002546,0.09065409
3939,0.6443735,0.633656,0.1027921
3942,0.5924829,0.5787839,0.1119058
3944,0.5924829,0.5787839,0.1119058
3946,0.57743,0.564406,0.1046783
3949,0.57743,0.564406,0.1046783
3951,0.5709552,0.5581307,0.1027921
3953,0.5791218,0.5671728,0.1008706
3956,0.5791218,0.5671728,0.1008706
3958,0.5858405,0.5740312,0.1008706
3960,0.5858405,0.5740312,0.1008706
3963,0.6016592,0.5901666,0.1008706
3965,0.6016592,0.5901666,0.1008706
3968,0.6097356,0.5983981,0.1027921
3971,0.616438,0.605226,0.1008706
3973,0.616438,0.605226,0.1008706
3975,0.6240098,0.6129363,0.1008706
3978,0.6240098,0.6129363,0.1008706
3980,0.6240098,0.6129363,0.1008706
3982,0.6240098,0.6129363,0.1008706
3985,0.6240098,0.6129363,0.1008706
3987,0.6367366,0.6258884,0.1027921
3989,0.6367366,0.6258884,0.1027921
3992,0.6410245,0.63025,0.1046783
3994,0.6410245,0.63025,0.1046783
3996,0.6434618,0.6327289,0.1065312
3999,0.6449805,0.6345818,0.1046783
4001,0.6449805,0.6345818,0.1046783
4003,0.6464956,0.635814,0.1065312
4006,0.6464956,0.635814,0.1065312
4008,0.6507192,0.6437659,0.09065409
4011,0.6543178,0.6486109,0.08156469
4013,0.6543178,0.6486109,0.08156469
4016,0.6570037,0.652521,0.07401875
4018,0.6570037,0.652521,0.07401875
4020,0.6587883,0.6555129,0.06852804
4023,0.6587883,0.6555129,0.06852804
4025,0.660568,0.6575991,0.06255726
4027,0.6629335,0.6602717,0.06255726
4030,0.6629335,0.6602717,0.06255726
4032,0.6644077,0.6623429,0.05934703
4034,0.6644077,0.6623429,0.05934703
4037,0.6658786,0.6638185,0.05934703
4039,0.6658786,0.6638185,0.05934703
4041,0.6714388,0.66998,0.05595291
4044,0.6726035,0.6705639,0.05934703
4046,0.6726035,0.6705639,0.05934703
4048,0.6740565,0.6708556,0.0656106
4051,0.6740565,0.6708556,0.0656106
4054,0.6749268,0.6714388,0.06852804
4056,0.6769533,0.6717301,0.08156469
4059,0.6769533,0.6717301,0.08156469
4061,0.6778198,0.6720214,0.08622923
4063,0.6778198,0.6720214,0.08622923
4066,0.6827098,0.6778198,0.08392937
4068,0.6827098,0.6778198,0.08392937
4070,0.6847132,0.6795497,0.08156469
4073,0.6844273,0.6778198,0.08846933
4075,0.6844273,0.6778198,0.08846933
4077,0.6858553,0.6783969,0.09487279
4080,0.6858553,0.6783969,0.09487279
4082,0.687565,0.6792617,0.09691329
4084,0.6887025,0.6798376,0.1008706
4087,0.6887025,0.6798376,0.1008706
4089,0.6929511,0.6855699,0.09278741
4091,0.6929511,0.6855699,0.09278741
4094,0.6954879,0.6895542,0.08392937
4097,0.6954879,0.6895542,0.08392937
4099,0.6974546,0.6912548,0.08846933
4101,0.7005339,0.6929511,0.09487279
4104,0.7005339,0.6929511,0.09487279
4106,0.7022079,0.6937978,0.09891172
4108,0.7022079,0.6937978,0.09891172
4111,0.7033216,0.6946434,0.1008706
4113,0.7033216,0.6946434,0.1008706
4115,0.7027649,0.6937978,0.1027921
4118,0.7022079,0.6921035,0.1065312
4120,0.7022079,0.6921035,0.1065312
4122,0.7027649,0.6923862,0.1101434
4125,0.7027649,0.6923862,0.1101434
4127,0.7033216,0.6921035,0.1136409
4129,0.7030433,0.6918207,0.1153499
4132,0.7030433,0.6918207,0.1153499
4134,0.7030433,0.6912548,0.1186941
4136,0.7030433,0.6912548,0.1186941
4140,0.7005339,0.6887025,0.1170339
4142,0.7005339,0.6887025,0.1170339
4144,0.6977351,0.6849989,0.1186941
4147,0.6966124,0.6841414,0.1186941
4149,0.6966124,0.6841414,0.1186941
4151,0.694925,0.6821364,0.1203313
4154,0.694925,0.6821364,0.1203313
4156,0.6940797,0.6812752,0.1203313
4158,0.6923862,0.6807005,0.1170339
4161,0.6923862,0.6807005,0.1170339
4163,0.6932335,0.6827098,0.1083524
4165,0.6932335,0.6827098,0.1083524
4168,0.6935157,0.6852845,0.09691329
4170,0.6935157,0.6852845,0.09691329
4172,0.6889865,0.680988,0.09487279
4175,0.6872803,0.6795497,0.09278741
4177,0.6872803,0.6795497,0.09278741
4179,0.6841414,0.6763749,0.09487279
4183,0.6841414,0.6763749,0.09487279
4185,0.6835691,0.6752167,0.09487279
4187,0.6832828,0.6766641,0.08846933
4189,0.6832828,0.6766641,0.08846933
4192,0.6838553,0.6783969,0.08156469
4194,0.6838553,0.6783969,0.08156469
4196,0.6829963,0.6789736,0.07401875
4199,0.6829963,0.6789736,0.07401875
4201,0.6824232,0.6781085,0.07132626
4203,0.6812752,0.6766641,0.07661668
4206,0.6812752,0.6766641,0.07661668
4208,0.6795497,0.6746368,0.07661668
4210,0.6795497,0.6746368,0.07661668
4213,0.6786853,0.6737661,0.08156469
4215,0.6786853,0.6737661,0.08156469
4217,0.6778198,0.6726035,0.08156469
4220,0.6775311,0.6723125,0.08156469
4222,0.6775311,0.6723125,0.08156469
4225,0.6772422,0.6720214,0.07912937
4228,0.6772422,0.6720214,0.07912937
4230,0.6769533,0.6720214,0.08156469
4232,0.6781085,0.6731851,0.08156469
4235,0.6781085,0.6731851,0.08156469
4237,0.6783969,0.6734757,0.08156469
4239,0.6783969,0.6734757,0.08156469
4242,0.6792617,0.6737661,0.08156469
4244,0.6792617,0.6737661,0.08156469
4246,0.6789736,0.6740565,0.07912937
4249,0.6801254,0.6752167,0.07912937
4251,0.6801254,0.6752167,0.07912937
4253,0.6795497,0.6749268,0.07912937
4256,0.6795497,0.6749268,0.07912937
4258,0.6792617,0.6740565,0.07912937
4260,0.6798376,0.6766641,0.06852804
4263,0.6798376,0.6766641,0.06852804
4265,0.6812752,0.6792617,0.06255726
4268,0.6812752,0.6792617,0.06255726
4271,0.6824232,0.680413,0.05595291
4273,0.6824232,0.680413,0.05595291
4275,0.6818494,0.680413,0.05233916
4277,0.6815624,0.6801254,0.05595291
4280,0.6815624,0.6801254,0.05595291
4282,0.6815624,0.6801254,0.05595291
4284,0.6815624,0.6801254,0.05595291
4287,0.680988,0.6792617,0.05595291
4289,0.680988,0.6786853,0.05934703
4291,0.680988,0.6786853,0.05934703
4294,0.6807005,0.6781085,0.05934703
4296,0.6807005,0.6781085,0.05934703
4298,0.6798376,0.6775311,0.05934703
4301,0.6798376,0.6775311,0.05934703
4303,0.6801254,0.6778198,0.06255726
4305,0.6807005,0.6783969,0.0656106
4308,0.6807005,0.6783969,0.0656106
4311,0.6844273,0.6827098,0.05595291
4313,0.6844273,0.6827098,0.05595291
4316,0.6864257,0.6855699,0.05233916
4318,0.6864257,0.6855699,0.05233916
4320,0.6901216,0.6901216,0.04423466
4323,0.6901216,0.6895542,0.04423466
4325,0.6901216,0.6895542,0.04423466
4327,0.6915378,0.6918207,0.03956468
4330,0.6915378,0.6918207,0.03956468
4332,0.6935157,0.6943616,0.03956468
4334,0.694925,0.6954879,0.03426402
4337,0.694925,0.6954879,0.03426402
4339,0.694925,0.6952065,0.03956468
4341,0.694925,0.6952065,0.03956468
4344,0.694925,0.694925,0.03956468
4346,0.694925,0.694925,0.03956468
4348,0.6966124,0.697174,0.03426402
4352,0.6991359,0.7005339,0.02797646
4354,0.6991359,0.7005339,0.02797646
4356,0.7013714,0.7030433,0.01978234
4359,0.7013714,0.7030433,0.01978234
4361,0.7058211,0.7072059,0.01978234
4363,0.7047113,0.7060983,0.01978234
4365,0.7047113,0.7060983,0.01978234
4368,0.7035998,0.7044336,0.02797646
4370,0.7035998,0.7044336,0.02797646
4372,0.7047113,0.7066523,0.01978234
4375,0.7047113,0.7066523,0.01978234
4377,0.7052664,0.7069291,0.01978234
4379,0.7022079,0.7041557,0.01978234
4382,0.7022079,0.7041557,0.01978234
4384,0.6982958,0.6996954,0.02797646
4386,0.6982958,0.6996954,0.02797646
4389,0.6963314,0.697174,0.02797646
4391,0.6963314,0.697174,0.02797646
4393,0.6940797,0.6937978,0.03956468
4397,0.6935157,0.6929511,0.04423466
4399,0.6935157,0.6929511,0.04423466
4401,0.6926687,0.6912548,0.05233916
4404,0.6926687,0.6912548,0.05233916
4406,0.6929511,0.6926687,0.04423466
4408,0.6946434,0.6952065,0.03426402
4411,0.6946434,0.6952065,0.03426402
4413,0.6963314,0.6977351,0.02797646
4415,0.6963314,0.6977351,0.02797646
4418,0.6996954,0.7016503,0.01978234
4420,0.6996954,0.7016503,0.01978234
4422,0.7013714,0.7035998,0.01978234
4425,0.7041557,0.7066523,0
4427,0.7041557,0.7066523,0
4429,0.7035998,0.7066523,0
4432,0.7035998,0.7066523,0
4434,0.7038778,0.7069291,0
4436,0.7038778,0.7074825,0
4440,0.7038778,0.7074825,0
4442,0.7044336,0.707759,0
4444,0.7044336,0.707759,0
4447,0.7038778,0.7066523,0
4449,0.7038778,0.7066523,0
4451,0.7019292,0.7058211,0
4453,0.6994157,0.7030433,0
4456,0.6994157,0.7030433,0
4458,0.6960504,0.6991359,0
4460,0.6960504,0.6991359,0
4463,0.7019292,0.7047113,0
4465,0.707759,0.7102429,0
4467,0.707759,0.7102429,0
4470,0.7124436,0.7154584,0
4472,0.7124436,0.7154584,0
4474,0.7151849,0.7179157,0
4477,0.7151849,0.7179157,0
4480,0.7127182,0.7162784,0
4482,0.7105184,0.7143636,0
4485,0.7105184,0.7143636,0
4487,0.709416,0.7127182,0
4489,0.709416,0.7127182,0
4492,0.7055438,0.7091401,0
4494,0.7055438,0.7091401,0
4496,0.7019292,0.7049889,0
4499,0.699975,0.7024865,0
4501,0.699975,0.7024865,0
4503,0.6943616,0.6960504,0.01978234
4506,0.6943616,0.6960504,0.01978234
4508,0.6906884,0.6926687,0.01978234
4510,0.6895542,0.6906884,0.02797646
4513,0.6895542,0.6906884,0.02797646
4515,0.6906884,0.6915378,0.02797646
4517,0.6906884,0.6915378,0.02797646
4520,0.6901216,0.6909717,0.02797646
4523,0.6901216,0.6909717,0.02797646
4525,0.6889865,0.6895542,0.03426402
4528,0.6884183,0.6887025,0.03426402
4530,0.6884183,0.6887025,0.03426402
4532,0.6935157,0.6937978,0.03426402
4535,0.6935157,0.6937978,0.03426402
4537,0.6954879,0.6963314,0.02797646
4539,0.6954879,0.6960504,0.03426402
4541,0.6954879,0.6960504,0.03426402
4544,0.6946434,0.694925,0.03426402
4546,0.6946434,0.694925,0.03426402
4548,0.697174,0.6980155,0.02797646
4551,0.697174,0.6980155,0.02797646
4553,0.6985759,0.6994157,0.02797646
4555,0.6960504,0.6963314,0.03426402
4558,0.6960504,0.6963314,0.03426402
4560,0.6952065,0.694925,0.03956468
4562,0.6952065,0.694925,0.03956468
4566,0.6909717,0.690405,0.04845664
4568,0.6909717,0.690405,0.04845664
4570,0.6898379,0.6884183,0.05233916
4573,0.6855699,0.6841414,0.05233916
4575,0.6855699,0.6841414,0.05233916
4577,0.6841414,0.6824232,0.05233916
4580,0.6841414,0.6824232,0.05233916
4582,0.6835691,0.6812752,0.05595291
4584,0.6821364,0.6798376,0.06255726
4587,0.6821364,0.6798376,0.06255726
4589,0.6812752,0.6786853,0.06255726
4591,0.6812752,0.6786853,0.06255726
4594,0.6807005,0.6775311,0.0656106
4596,0.6807005,0.6775311,0.0656106
4598,0.6789736,0.675796,0.06255726
4601,0.6766641,0.6737661,0.06255726
4603,0.6766641,0.6737661,0.06255726
4605,0.6824232,0.6798376,0.0656106
4609,0.6824232,0.6798376,0.0656106
4611,0.6909717,0.688134,0.0656106
4613,0.6906884,0.688134,0.06255726
4616,0.6906884,0.688134,0.06255726
4618,0.6901216,0.687565,0.06255726
4620,0.6901216,0.687565,0.06255726
4622,0.694925,0.6932335,0.05934703
4625,0.694925,0.6932335,0.05934703
4627,0.697174,0.694925,0.05934703
4629,0.6926687,0.690405,0.05934703
4632,0.6926687,0.690405,0.05934703
4634,0.6861406,0.6841414,0.05934703
4636,0.6861406,0.6841414,0.05934703
4639,0.6775311,0.6755064,0.05934703
4641,0.6746368,0.6723125,0.06255726
4643,0.6746368,0.6723125,0.06255726
4646,0.6714388,0.6708556,0.04423466
4648,0.6714388,0.6708556,0.04423466
4651,0.6702721,0.6702721,0.03956468
4654,0.6702721,0.6702721,0.03956468
4656,0.6647022,0.6652907,0.03956468
4658,0.6611602,0.661456,0.03956468
4661,0.6611602,0.661456,0.03956468
4663,0.6537194,0.6540186,0.03956468
4665,0.6537194,0.6540186,0.03956468
4668,0.6516207,0.6513204,0.04845664
4670,0.6516207,0.6513204,0.04845664
4672,0.6483091,0.6480073,0.04423466
4675,0.6477052,0.6471007,0.04845664
4677,0.6477052,0.6471007,0.04845664
4679,0.64589,0.6452838,0.04845664
4682,0.64589,0.6452838,0.04845664
4684,0.6443735,0.6428534,0.05595291
4686,0.649214,0.6480073,0.05595291
4689,0.649214,0.6480073,0.05595291
4691,0.6531205,0.651921,0.05595291
4694,0.6531205,0.651921,0.05595291
4697,0.6531205,0.651921,0.05595291
4699,0.6531205,0.651921,0.05595291
4701,0.6596788,0.6578966,0.05595291
4704,0.6611602,0.6608641,0.04845664
4706,0.6611602,0.6608641,0.04845664
4708,0.6629335,0.6632286,0.04423466
4710,0.6641131,0.6649964,0.03426402
4713,0.6673463,0.6682253,0.03956468
4715,0.6723125,0.6726035,0.03956468
4717,0.6723125,0.6726035,0.03956468
4720,0.6737661,0.6743467,0.03956468
4722,0.6737661,0.6743467,0.03956468
4724,0.6760855,0.675796,0.04423466
4727,0.6760855,0.675796,0.04423466
4729,0.6795497,0.6798376,0.03956468
4731,0.6827098,0.6841414,0.02797646
4734,0.6827098,0.6841414,0.02797646
4737,0.6829963,0.6844273,0.02797646
4739,0.6829963,0.6844273,0.02797646
4742,0.6835691,0.6855699,0.03426402
4744,0.6858553,0.687565,0.02797646
4746,0.6858553,0.687565,0.02797646
4749,0.687565,0.6898379,0.02797646
4751,0.687565,0.6898379,0.02797646
4753,0.6906884,0.6935157,0
4756,0.6906884,0.6935157,0
4758,0.6932335,0.6968932,0
4760,0.6943616,0.6980155,0
4763,0.6943616,0.6980155,0
4765,0.6957693,0.6996954,-0.01978234
4767,0.6957693,0.6996954,-0.01978234
4770,0.6966124,0.699975,-0.01978234
4772,0.6966124,0.699975,-0.01978234
4774,0.6963314,0.7002546,0
4777,0.6966124,0.7008132,-0.01978234
4780,0.6966124,0.7008132,-0.01978234
4782,0.6932335,0.6974546,-0.01978234
4785,0.6932335,0.6974546,-0.01978234
4787,0.6923862,0.6966124,-0.02797646
4789,0.6906884,0.6952065,-0.02797646
4792,0.6906884,0.6952065,-0.02797646
4794,0.6901216,0.6943616,-0.02797646
4796,0.6901216,0.6943616,-0.02797646
4798,0.6872803,0.6915378,-0.02797646
4801,0.6872803,0.6915378,-0.02797646
4803,0.6855699,0.6901216,-0.03426402
4805,0.6835691,0.688134,-0.03426402
4808,0.6835691,0.688134,-0.03426402
4810,0.6821364,0.6864257,-0.03426402
4812,0.6821364,0.6864257,-0.03426402
4815,0.6812752,0.6855699,-0.03956468
4817,0.680413,0.6849989,-0.03426402
4819,0.680413,0.6849989,-0.03426402
4823,0.6781085,0.6824232,-0.03956468
4825,0.6781085,0.6824232,-0.03956468
4827,0.6775311,0.6821364,-0.03426402
4830,0.6772422,0.6812752,-0.03956468
4832,0.6769533,0.680988,-0.03956468
4834,0.6723125,0.6772422,-0.03426402
4837,0.6723125,0.6772422,-0.03426402
4839,0.6688108,0.6737661,-0.01978234
4841,0.6688108,0.6737661,-0.01978234
4844,0.6655847,0.6708556,0
4846,0.6655847,0.6708556,0
4848,0.652521,0.6573014,0
4851,0.6483091,0.6528208,0
4853,0.6483091,0.6528208,0
4855,0.6483091,0.6531205,-0.01978234
4858,0.6483091,0.6531205,-0.01978234
4860,0.6486109,0.65342,0
4862,0.6434618,0.6483091,-0.01978234
4866,0.6434618,0.6483091,-0.01978234
4868,0.6419396,0.646193,-0.01978234
4870,0.6419396,0.646193,-0.01978234
4873,0.6158028,0.6205508,0
4875,0.6158028,0.6205508,0
4877,0.6061952,0.6106976,-0.01978234
4880,0.6026341,0.6074851,0
4882,0.6026341,0.6074851,0
4884,0.5964329,0.6013339,0
4886,0.5964329,0.6013339,0
4889,0.605226,0.6103771,-0.01978234
4891,0.6177064,0.6230683,-0.01978234
4893,0.6177064,0.6230683,-0.01978234
4896,0.615485,0.6205508,0
4898,0.615485,0.6205508,0
4900,0.6119779,0.616438,0
4903,0.6119779,0.616438,0
4905,0.614212,0.618656,0
4908,0.615485,0.6205508,0
4911,0.615485,0.6205508,0
4913,0.6177064,0.6224399,0
4915,0.6177064,0.6224399,0
4918,0.6196041,0.6240098,0
4920,0.6214961,0.6258884,0
4922,0.6214961,0.6258884,0
4925,0.6227542,0.6274496,0
4927,0.6236961,0.6283845,0
4929,0.6299395,0.6348901,0
4932,0.6299395,0.6348901,0
4934,0.6391903,0.6437659,0
4936,0.6221254,0.6265134,-0.01978234
4939,0.6221254,0.6265134,-0.01978234
4941,0.6071628,0.6119779,0
4943,0.6071628,0.6119779,0
4946,0.6003569,0.6049027,-0.01978234
4948,0.6003569,0.6049027,-0.01978234
4951,0.6042554,0.608772,0
4954,0.5868416,0.591822,0
4956,0.5868416,0.591822,0
4958,0.5702693,0.5747126,0
4961,0.5702693,0.5747126,0
4963,0.5574291,0.5619739,0
4965,0.5584812,0.5630175,0
4968,0.5584812,0.5630175,0
4970,0.5507192,0.5542608,0
4972,0.5507192,0.5542608,0
4974,0.5370479,0.5406791,0
4977,0.5370479,0.5406791,0
4979,0.5207698,0.5233933,0
4981,0.4949555,0.4969283,0.02797646
4984,0.4949555,0.4969283,0.02797646
4986,0.4845679,0.4857778,0.03956468
4988,0.4845679,0.4857778,0.03956468
4992,0.5082192,0.5109072,0.01978234
4994,0.5035778,0.5062904,0.01978234
4996,0.5035778,0.5062904,0.01978234
4999,0.4925778,0.4953507,0.01978234
5001,0.4925778,0.4953507,0.01978234
5003,0.4735395,0.4768338,0.01978234
5006,0.4735395,0.4768338,0.01978234
5008,0.464781,0.4685547,0
5010,0.4575681,0.4622481,0
5013,0.4575681,0.4622481,0
5015,0.4571402,0.4618246,0
5017,0.4571402,0.4618246,0
5020,0.4524074,0.4579955,0
5022,0.4524074,0.4579955,0
5024,0.4458725,0.4515415,0
5027,0.4427898,0.4489339,0
5029,0.4427898,0.4489339,0
5031,0.4445539,0.4502396,0
5035,0.4445539,0.4502396,0
5037,0.4445539,0.450674,0
5039,0.4401304,0.4454334,0
5042,0.4401304,0.4454334,0
5044,0.4374548,0.4423477,0
5046,0.4374548,0.4423477,0
5049,0.4311472,0.4374548,0
5051,0.4311472,0.4374548,0
5053,0.4288719,0.4347627,0
5056,0.4242849,0.4302385,0
5058,0.4242849,0.4302385,0
5060,0.4219727,0.4288719,0
5062,0.4219727,0.4288719,0
5065,0.4471871,0.453703,0
5067,0.4558544,0.4626713,-0.01978234
5069,0.4558544,0.4626713,-0.01978234
5072,0.4957456,0.5020211,-0.01978234
5074,0.4957456,0.5020211,-0.01978234
5076,0.5105241,0.5166202,-0.02797646
5080,0.5105241,0.5166202,-0.02797646
5082,0.5311863,0.5374122,-0.02797646
5084,0.5392296,0.5453635,-0.02797646
5087,0.5392296,0.5453635,-0.02797646
5089,0.5478694,0.5546138,-0.02797646
5091,0.5478694,0.5546138,-0.02797646
5094,0.5514293,0.55778,-0.03426402
5096,0.5556712,0.5623221,-0.03426402
5098,0.5556712,0.5623221,-0.03426402
5101,0.55778,0.5640592,-0.02797646
5103,0.55778,0.5640592,-0.02797646
5105,0.5736903,0.5797972,-0.03426402
5108,0.5736903,0.5797972,-0.03426402
5110,0.5801346,0.5861744,-0.03426402
5112,0.591822,0.5974163,-0.03426402
5115,0.591822,0.5974163,-0.03426402
5117,0.6013339,0.6071628,-0.03956468
5120,0.6013339,0.6071628,-0.03956468
5123,0.6010084,0.6071628,-0.03956468
5125,0.6010084,0.6071628,-0.03956468
5127,0.6016592,0.6074851,-0.03956468
5130,0.5993783,0.605226,-0.03426402
5132,0.5993783,0.605226,-0.03426402
5134,0.5970887,0.6029587,-0.03426402
5137,0.5970887,0.6029587,-0.03426402
5139,0.5928131,0.598725,-0.03426402
5141,0.587175,0.5934729,-0.03956468
5144,0.587175,0.5934729,-0.03956468
5146,0.589503,0.5954478,-0.03956468
5148,0.589503,0.5954478,-0.03956468
5150,0.5934729,0.5993783,-0.03956468
5153,0.5934729,0.5993783,-0.03956468
5155,0.5908293,0.5961047,-0.03956468
5157,0.5868416,0.5931431,-0.03956468
5160,0.5868416,0.5931431,-0.03956468
5163,0.5831623,0.5888388,-0.03426402
5165,0.5831623,0.5888388,-0.03426402
5168,0.5787839,0.5845029,-0.03956468
5170,0.5821548,0.5875081,-0.04423466
5172,0.5821548,0.5875081,-0.04423466
5175,0.587175,0.5924829,-0.04423466
5177,0.587175,0.5924829,-0.04423466
5179,0.5675176,0.5733491,-0.03956468
5182,0.5675176,0.5733491,-0.03956468
5184,0.5381398,0.5439265,-0.03426402
5186,0.5308178,0.5366834,-0.03956468
5189,0.5308178,0.5366834,-0.03956468
5191,0.5341251,0.5395923,-0.03956468
5193,0.5341251,0.5395923,-0.03956468
5196,0.5256317,0.5315546,-0.04423466
5198,0.5101407,0.5162413,-0.03956468
5200,0.5101407,0.5162413,-0.03956468
5203,0.4985009,0.5047422,-0.04423466
5206,0.4985009,0.5047422,-0.04423466
5208,0.4821389,0.4877876,-0.04423466
5211,0.4821389,0.4877876,-0.04423466
5213,0.4756011,0.4813265,-0.04845664
5215,0.4618246,0.4677188,-0.04845664
5218,0.4618246,0.4677188,-0.04845664
5220,0.456712,0.463094,-0.05233916
5222,0.456712,0.463094,-0.05233916
5225,0.4788812,0.4845679,-0.05595291
5227,0.4788812,0.4845679,-0.05595291
5229,0.4869847,0.4929749,-0.05595291
5231,0.508604,0.5147229,-0.05934703
5234,0.508604,0.5147229,-0.05934703
5236,0.5166202,0.5226451,-0.05934703
5238,0.5166202,0.5226451,-0.05934703
5241,0.5020211,0.5082192,-0.06255726
5243,0.4965344,0.5028,-0.06255726
5245,0.4965344,0.5028,-0.06255726
5249,0.5089886,0.5147229,-0.06255726
5251,0.5089886,0.5147229,-0.06255726
5253,0.5135812,0.5192646,-0.06852804
5256,0.5135812,0.5192646,-0.06852804
5258,0.4829499,0.4881886,-0.0656106
5260,0.4714689,0.4768338,-0.0656106
5263,0.4714689,0.4768338,-0.0656106
5265,0.4370072,0.4419051,-0.0656106
5267,0.4370072,0.4419051,-0.0656106
5270,0.4233615,0.4288719,-0.0656106
5272,0.4087828,0.4149588,-0.0656106
5274,0.4087828,0.4149588,-0.0656106
5277,0.3981127,0.4039677,-0.0656106
5279,0.3981127,0.4039677,-0.0656106
5281,0.3232465,0.3292442,-0.05233916
5284,0.3232465,0.3292442,-0.05233916
5286,0.2609472,0.2668786,-0.03956468
5288,0.276953,0.2825486,-0.03956468
5292,0.276953,0.2825486,-0.03956468
5294,0.2818553,0.2866737,-0.03956468
5296,0.3051875,0.3109043,-0.03956468
5299,0.324455,0.329838,-0.03956468
5301,0.324455,0.329838,-0.03956468
5303,0.3690354,0.373777,-0.04845664
5306,0.3921704,0.3971285,-0.04845664
5308,0.3921704,0.3971285,-0.04845664
5310,0.427501,0.4320539,-0.05595291
5313,0.427501,0.4320539,-0.05595291
5315,0.4374548,0.4419051,-0.05595291
5317,0.4519747,0.456712,-0.05934703
5319,0.4519747,0.456712,-0.05934703
5322,0.4601268,0.4656223,-0.06255726
5324,0.4601268,0.4656223,-0.06255726
5326,0.4731261,0.4776538,-0.06255726
5329,0.4731261,0.4776538,-0.06255726
5331,0.4849715,0.4901886,-0.0656106
5334,0.5035778,0.508604,-0.06255726
5337,0.5035778,0.508604,-0.06255726
5339,0.4747775,0.4801054,-0.06255726
5341,0.4747775,0.4801054,-0.06255726
5344,0.4643598,0.4698059,-0.06255726
5346,0.4710537,0.4764233,-0.05934703
5348,0.4710537,0.4764233,-0.05934703
5351,0.4821389,0.4873863,-0.05934703
5353,0.4821389,0.4873863,-0.05934703
5355,0.4853748,0.4905876,-0.05934703
5358,0.4881886,0.4929749,-0.06255726
5360,0.4901886,0.4953507,-0.06255726
5362,0.4921804,0.4977152,-0.06255726
5365,0.4760123,0.4813265,-0.05934703
5367,0.463094,0.4685547,-0.05934703
5369,0.463094,0.4685547,-0.05934703
5372,0.4297835,0.4347627,-0.05595291
5374,0.4168407,0.4228991,-0.05595291
5377,0.4168407,0.4228991,-0.05595291
5380,0.3946573,0.4010509,-0.05595291
5382,0.3946573,0.4010509,-0.05595291
5384,0.3851218,0.3916712,-0.05595291
5387,0.3851218,0.3916712,-0.05595291
5389,0.3951527,0.4015385,-0.05934703
5391,0.409739,0.4159008,-0.05934703
5394,0.409739,0.4159008,-0.05934703
5396,0.4159008,0.4210443,-0.06255726
5398,0.4159008,0.4210443,-0.06255726
5401,0.4159008,0.4210443,-0.06255726
5403,0.4159008,0.4210443,-0.06255726
5405,0.4159008,0.4210443,-0.06255726
5407,0.4405747,0.4458725,-0.0656106
5410,0.4405747,0.4458725,-0.0656106
5412,0.4502396,0.4558544,-0.0656106
5414,0.4502396,0.4558544,-0.0656106
5417,0.4656223,0.4710537,-0.0656106
5420,0.4714689,0.4768338,-0.06852804
5422,0.4714689,0.4768338,-0.06852804
5425,0.4809199,0.4857778,-0.06852804
5427,0.4809199,0.4857778,-0.06852804
5429,0.4833549,0.4885893,-0.06852804
5432,0.4833549,0.4885893,-0.06852804
5434,0.4881886,0.4929749,-0.07401875
5436,0.4893896,0.4945601,-0.07401875
5439,0.4893896,0.4945601,-0.07401875
5441,0.4925778,0.4961402,-0.07661668
5443,0.4925778,0.4961402,-0.07661668
5446,0.4885893,0.4921804,-0.07912937
5448,0.4829499,0.4869847,-0.08156469
5450,0.4829499,0.4869847,-0.08156469
5453,0.4622481,0.4660423,-0.08156469
5455,0.4622481,0.4660423,-0.08156469
5457,0.4463111,0.4502396,-0.08156469
5460,0.4463111,0.4502396,-0.08156469
5463,0.4154301,0.4191812,-0.07912937
5465,0.3886621,0.393167,-0.07661668
5468,0.3886621,0.393167,-0.07661668
5470,0.3901695,0.3946573,-0.07661668
5472,0.3901695,0.3946573,-0.07661668
5475,0.3916712,0.3961419,-0.07912937
5477,0.3916712,0.3961419,-0.07912937
5479,0.3810355,0.3861367,-0.07912937
5482,0.3722032,0.3769049,-0.07912937
5484,0.3722032,0.3769049,-0.07912937
5486,0.3538778,0.3588198,-0.07912937
5489,0.3538778,0.3588198,-0.07912937
5491,0.3380413,0.343781,-0.07661668
5493,0.332791,0.3374619,-0.07661668
5495,0.332791,0.3374619,-0.07661668
5498,0.3171355,0.3226406,-0.07661668
5500,0.3171355,0.3226406,-0.07661668
5502,0.311533,0.3171355,-0.07661668
5506,0.311533,0.3171355,-0.07661668
5508,0.3386196,0.3449174,-0.07912937
5510,0.3494264,0.354982,-0.07912937
5513,0.3494264,0.354982,-0.07912937
5515,0.343781,0.3505445,-0.07401875
5517,0.343781,0.3505445,-0.07401875
5520,0.3420692,0.3483046,-0.07661668
5522,0.3280534,0.3357179,-0.07401875
5524,0.3280534,0.3357179,-0.07401875
5527,0.3232465,0.3310224,-0.07401875
5529,0.3232465,0.3310224,-0.07401875
5531,0.3109043,0.3195939,-0.07132626
5534,0.3109043,0.3195939,-0.07132626
5536,0.3071049,0.315279,-0.07132626
5538,0.2967354,0.3058279,-0.06852804
5541,0.2967354,0.3058279,-0.06852804
5543,0.2934199,0.302612,-0.06852804
5545,0.2934199,0.302612,-0.06852804
5549,0.3232465,0.3310224,-0.07401875
5551,0.3339648,0.3420692,-0.07661668
5553,0.3339648,0.3420692,-0.07661668
5556,0.3256589,0.332791,-0.07661668
5558,0.3256589,0.332791,-0.07661668
5560,0.3214254,0.3274564,-0.07912937
5563,0.3214254,0.3274564,-0.07912937
5565,0.3140353,0.3195939,-0.07661668
5567,0.2993615,0.3058279,-0.07912937
5570,0.2993615,0.3058279,-0.07912937
5572,0.2934199,0.2987072,-0.07912937
5574,0.2934199,0.2987072,-0.07912937
5577,0.2880355,0.2940859,-0.07912937
5579,0.2880355,0.2940859,-0.08156469
5581,0.2920831,0.2980514,-0.08622923
5583,0.2954137,0.3000144,-0.08846933
5586,0.2954137,0.3000144,-0.08846933
5588,0.2900664,0.2960753,-0.08846933
5591,0.2900664,0.2960753,-0.08846933
5594,0.2832403,0.2887141,-0.08846933
5596,0.2741124,0.2776587,-0.09065409
5598,0.2741124,0.2776587,-0.09065409
5601,0.2586879,0.261696,-0.09278741
5603,0.2586879,0.261696,-0.09278741
5605,0.2832403,0.2846186,-0.09691329
5608,0.2832403,0.2846186,-0.09691329
5610,0.3189811,0.3202056,-0.1027921
5612,0.3238513,0.3256589,-0.1008706
5615,0.3238513,0.3256589,-0.1008706
5617,0.332791,0.3345502,-0.1046783
5619,0.332791,0.3345502,-0.1046783
5622,0.3626169,0.364769,-0.1046783
5624,0.3748225,0.3769049,-0.1065312
5626,0.3748225,0.3769049,-0.1065312
5629,0.3856296,0.3876539,-0.1065312
5632,0.3856296,0.3876539,-0.1065312
5634,0.4187142,0.4173099,-0.1153499
5637,0.4187142,0.4173099,-0.1153499
5639,0.4270431,0.4261257,-0.1153499
5641,0.4311472,0.4302385,-0.1170339
5644,0.4311472,0.4302385,-0.1170339
5646,0.4347627,0.4338616,-0.1170339
5648,0.4347627,0.4338616,-0.1170339
5651,0.4374548,0.4361108,-0.1186941
5653,0.4396856,0.4387946,-0.1203313
5655,0.4396856,0.4387946,-0.1203313
5658,0.4410186,0.4396856,-0.1186941
5660,0.4410186,0.4396856,-0.1186941
5662,0.4405747,0.4392403,-0.1203313
5665,0.4405747,0.4392403,-0.1203313
5667,0.4401304,0.4387946,-0.1203313
5669,0.4392403,0.4370072,-0.1219466
5671,0.4392403,0.4370072,-0.1219466
5675,0.4392403,0.4356619,-0.1219466
5677,0.4392403,0.4356619,-0.1219466
5679,0.4370072,0.4338616,-0.1219466
5682,0.4370072,0.4338616,-0.1219466
5684,0.4356619,0.4320539,-0.1219466
5686,0.4352126,0.4311472,-0.1251145
5689,0.4352126,0.4311472,-0.1251145
5691,0.4356619,0.4297835,-0.1266688
5693,0.4356619,0.4297835,-0.1266688
5696,0.4374548,0.4316007,-0.1266688
5698,0.3631561,0.3577275,-0.1119058
5700,0.3631561,0.3577275,-0.1119058
5703,0.2927522,0.2880355,-0.09891172
5705,0.2927522,0.2880355,-0.09891172
5707,0.2839303,0.2797648,-0.09487279
5710,0.2839303,0.2797648,-0.09487279
5712,0.276953,0.2733977,-0.09487279
5714,0.302612,0.2980514,-0.1008706
5718,0.302612,0.2980514,-0.1008706
5720,0.3019647,0.2973941,-0.1027921
5722,0.3019647,0.2973941,-0.1027921
5725,0.2940859,0.2900664,-0.1027921
5727,0.3039024,0.3000144,-0.1046783
5729,0.3039024,0.3000144,-0.1046783
5732,0.3292442,0.324455,-0.1083524
5734,0.3292442,0.324455,-0.1083524
5736,0.3195939,0.315899,-0.1083524
5739,0.3195939,0.315899,-0.1083524
5741,0.3051875,0.302612,-0.1083524
5743,0.3000144,0.2980514,-0.1065312
5746,0.3000144,0.2980514,-0.1065312
5748,0.3339648,0.3310224,-0.1119058
5750,0.3339648,0.3310224,-0.1119058
5753,0.3466151,0.343781,-0.1136409
5755,0.3466151,0.343781,-0.1136409
5757,0.3642322,0.3626169,-0.1153499
5760,0.3716771,0.3700944,-0.1170339
5763,0.3716771,0.3700944,-0.1170339
5765,0.3835945,0.3835945,-0.1153499
5767,0.3835945,0.3835945,-0.1153499
5770,0.3881583,0.3881583,-0.1170339
5772,0.3566318,0.3571801,-0.1119058
5774,0.3566318,0.3571801,-0.1119058
5777,0.3449174,0.3454843,-0.1101434
5779,0.3449174,0.3454843,-0.1101434
5781,0.3471792,0.3483046,-0.1101434
5784,0.3471792,0.3483046,-0.1101434
5786,0.3477423,0.3494264,-0.1101434
5788,0.3588198,0.3588198,-0.1136409
5791,0.3588198,0.3588198,-0.1136409
5793,0.3527702,0.3511023,-0.1170339
5795,0.3527702,0.3511023,-0.1170339
5798,0.343781,0.3409232,-0.1170339
5800,0.3304307,0.3268584,-0.1186941
5803,0.3304307,0.3268584,-0.1186941
5806,0.3339648,0.3310224,-0.1170339
5808,0.3339648,0.3310224,-0.1170339
5810,0.3397734,0.3368816,-0.1170339
5813,0.3397734,0.3368816,-0.1170339
5815,0.329838,0.3268584,-0.1170339
5817,0.315279,0.3109043,-0.1203313
5820,0.315279,0.3109043,-0.1203313
5822,0.2960753,0.2900664,-0.1203313
5824,0.2960753,0.2900664,-0.1203313
5827,0.2880355,0.2825486,-0.1203313
5829,0.2762456,0.2697954,-0.1186941
5831,0.2762456,0.2697954,-0.1186941
5834,0.2556444,0.25101,-0.1153499
5836,0.2556444,0.25101,-0.1153499
5838,0.1356209,0.1297215,-0.09278741
5840,0.1356209,0.1297215,-0.09278741
5843,0.09065409,0.08392937,-0.08622923
5846,0.08846933,0.07912937,-0.08622923
5848,0.08846933,0.07912937,-0.08622923
5851,0.08622923,0.07661668,-0.08622923
5853,0.08622923,0.07661668,-0.08622923
5855,0.08392937,0.07132626,-0.08846933
5858,0.08392937,0.07132626,-0.08846933
5860,0.1065312,0.09487279,-0.09487279
5862,0.1384764,0.1266688,-0.1046783
5865,0.1384764,0.1266688,-0.1046783
5867,0.1493534,0.1356209,-0.1101434
5869,0.1493534,0.1356209,-0.1101434
5872,0.1619255,0.1493534,-0.1119058
5874,0.1791368,0.166689,-0.1170339
5876,0.1791368,0.166689,-0.1170339
5879,0.1876719,0.174713,-0.1186941
5881,0.1876719,0.174713,-0.1186941
5883,0.1978235,0.1845175,-0.1203313
5886,0.1978235,0.1845175,-0.1203313
5889,0.2027088,0.1897456,-0.1235407
5891,0.2093567,0.1948336,-0.1251145
5894,0.2093567,0.1948336,-0.1251145
5896,0.2130625,0.1978235,-0.1251145
5898,0.2130625,0.1978235,-0.1251145
5901,0.2158,0.2027088,-0.1251145
5903,0.2185032,0.2046302,-0.1266688
5905,0.2185032,0.2046302,-0.1266688
5908,0.2238118,0.2074791,-0.1266688
5910,0.2238118,0.2074791,-0.1266688
5912,0.2246844,0.2102893,-0.1282043
5915,0.2246844,0.2102893,-0.1282043
5917,0.2264194,0.2121421,-0.1266688
5919,0.2298502,0.2167048,-0.1266688
5922,0.2298502,0.2167048,-0.1266688
5924,0.2315465,0.220287,-0.1235407
5926,0.2315465,0.220287,-0.1235407
5928,0.2349025,0.2238118,-0.1251145
5932,0.2349025,0.2246844,-0.1219466
5934,0.2349025,0.2246844,-0.1219466
5936,0.234068,0.2238118,-0.1219466
5939,0.234068,0.2238118,-0.1219466
5941,0.2315465,0.2229358,-0.1219466
5943,0.2315465,0.2229358,-0.1219466
5946,0.2332305,0.2229358,-0.1219466
5948,0.2332305,0.2229358,-0.1219466
5950,0.2332305,0.2229358,-0.1219466
5953,0.2315465,0.2220564,-0.1203313
5955,0.2315465,0.2220564,-0.1203313
5957,0.2306999,0.2211734,-0.1203313
5960,0.2306999,0.2211734,-0.1203313
5962,0.2298502,0.220287,-0.1203313
5964,0.2315465,0.2238118,-0.1203313
5967,0.2315465,0.2238118,-0.1203313
5969,0.2349025,0.2246844,-0.1186941
5971,0.2349025,0.2246844,-0.1186941
5975,0.2349025,0.2264194,-0.1186941
5977,0.235734,0.2272819,-0.1186941
5979,0.235734,0.2272819,-0.1186941
5982,0.235734,0.2272819,-0.1186941
5984,0.235734,0.2272819,-0.1186941
5986,0.2373883,0.2272819,-0.1170339
5989,0.2373883,0.2272819,-0.1170339
5991,0.2382111,0.2289973,-0.1170339
5993,0.2398483,0.2306999,-0.1203313
5996,0.2398483,0.2306999,-0.1203313
5998,0.2406627,0.2315465,-0.1186941
6000,0.2406627,0.2315465,-0.1186941
6003,0.2414744,0.23239,-0.1203313
6005,0.2446942,0.235734,-0.1203313
6007,0.2446942,0.235734,-0.1203313
6010,0.2462884,0.2382111,-0.1219466
6012,0.2462884,0.2382111,-0.1219466
6014,0.2462884,0.2373883,-0.1203313
6017,0.2462884,0.2373883,-0.1203313
6020,0.2438933,0.234068,-0.1219466
6022,0.2422834,0.23239,-0.1235407
6024,0.2422834,0.23239,-0.1235407
6027,0.2414744,0.2315465,-0.1251145
6029,0.2414744,0.2315465,-0.1251145
6031,0.2430897,0.23239,-0.1266688
6034,0.2430897,0.23239,-0.1266688
6036,0.2430897,0.2315465,-0.1251145
6038,0.2438933,0.2315465,-0.1282043
6041,0.2438933,0.2315465,-0.1282043
6043,0.2430897,0.2298502,-0.1282043
6045,0.2430897,0.2298502,-0.1282043
6048,0.2414744,0.2281412,-0.1282043
6050,0.2438933,0.2306999,-0.1297215
6052,0.2438933,0.2306999,-0.1297215
6055,0.2430897,0.2298502,-0.1312212
6057,0.2430897,0.2298502,-0.1312212
6060,0.2414744,0.2272819,-0.1312212
6063,0.2414744,0.2272819,-0.1312212
6065,0.2414744,0.2264194,-0.132704
6067,0.2406627,0.2264194,-0.132704
6070,0.2406627,0.2264194,-0.132704
6072,0.2382111,0.2229358,-0.132704
6074,0.2382111,0.2229358,-0.132704
6077,0.235734,0.220287,-0.132704
6079,0.235734,0.2211734,-0.1341704
6081,0.235734,0.2211734,-0.1341704
6084,0.2349025,0.2193969,-0.132704
6086,0.2349025,0.2193969,-0.132704
6088,0.2365626,0.220287,-0.132704
6091,0.2365626,0.220287,-0.132704
6093,0.2365626,0.220287,-0.1341704
6095,0.2349025,0.220287,-0.132704
6098,0.2349025,0.220287,-0.132704
6100,0.2349025,0.2193969,-0.132704
6103,0.2349025,0.2193969,-0.132704
6105,0.2517883,0.2365626,-0.1341704
6108,0.2783625,0.2646699,-0.1356209
6110,0.2783625,0.2646699,-0.1356209
6112,0.2797648,0.2668786,-0.1341704
6115,0.2797648,0.2668786,-0.1341704
6117,0.2797648,0.2668786,-0.1341704
6119,0.2797648,0.2668786,-0.1341704
6122,0.2934199,0.2804634,-0.1341704
6124,0.3045456,0.2934199,-0.132704
6126,0.3045456,0.2934199,-0.132704
6129,0.3280534,0.3171355,-0.132704
6131,0.3280534,0.3171355,-0.132704
6133,0.339197,0.3292442,-0.1341704
6136,0.339197,0.3292442,-0.1341704
6138,0.3403488,0.3310224,-0.1312212
6140,0.3292442,0.3195939,-0.1297215
6144,0.3292442,0.3195939,-0.1297215
6146,0.3374619,0.3280534,-0.1282043
6148,0.3374619,0.3280534,-0.1282043
6151,0.3443497,0.3357179,-0.1297215
6153,0.3588198,0.3505445,-0.1297215
6155,0.3588198,0.3505445,-0.1297215
6158,0.3663747,0.3577275,-0.1312212
6160,0.3663747,0.3577275,-0.1312212
6162,0.3794918,0.3706227,-0.1312212
6165,0.3794918,0.3706227,-0.1312212
6167,0.3846134,0.3758652,-0.1312212
6169,0.393167,0.3851218,-0.132704
6172,0.393167,0.3851218,-0.132704
6174,0.3971285,0.3886621,-0.1341704
6176,0.3971285,0.3886621,-0.1341704
6179,0.4015385,0.3936644,-0.1341704
6181,0.403483,0.3951527,-0.1341704
6183,0.403483,0.3951527,-0.1341704
6187,0.4049353,0.3971285,-0.132704
6189,0.4049353,0.3971285,-0.132704
6191,0.4068635,0.3981127,-0.1356209
6193,0.4068635,0.3981127,-0.1356209
6196,0.4078243,0.3981127,-0.1356209
6198,0.4073442,0.3990945,-0.1370561
6200,0.4073442,0.3990945,-0.1370561
6203,0.4068635,0.3971285,-0.1384764
6205,0.4068635,0.3971285,-0.1384764
6207,0.4059006,0.3966355,-0.1384764
6210,0.4059006,0.3966355,-0.1384764
6212,0.3876539,0.3784592,-0.1384764
6214,0.3732531,0.3631561,-0.1384764
6217,0.3732531,0.3631561,-0.1384764
6219,0.3593647,0.3494264,-0.1356209
6221,0.3593647,0.3494264,-0.1356209
6224,0.358274,0.3477423,-0.1370561
6226,0.3566318,0.3460502,-0.1356209
6228,0.3566318,0.3460502,-0.1356209
6232,0.3310224,0.3202056,-0.1356209
6234,0.3310224,0.3202056,-0.1356209
6236,0.3208161,0.3102743,-0.1341704
6239,0.3208161,0.3102743,-0.1341704
6241,0.2934199,0.2811602,-0.1312212
6243,0.2825486,0.2712421,-0.1312212
6246,0.2825486,0.2712421,-0.1312212
6248,0.2661444,0.254109,-0.1297215
6250,0.2661444,0.254109,-0.1297215
6253,0.2594432,0.2478722,-0.1282043
6255,0.2462884,0.2349025,-0.1266688
6257,0.2462884,0.2349025,-0.1266688
6260,0.2406627,0.2281412,-0.1266688
6262,0.2406627,0.2281412,-0.1266688
6264,0.2349025,0.2220564,-0.1266688
6267,0.2349025,0.2220564,-0.1266688
6269,0.2315465,0.2193969,-0.1266688
6272,0.2306999,0.2211734,-0.1251145
6275,0.2306999,0.2211734,-0.1251145
6277,0.2298502,0.220287,-0.1235407
6279,0.2298502,0.220287,-0.1235407
6281,0.23239,0.2246844,-0.1203313
6284,0.2332305,0.2255535,-0.1219466
6286,0.2332305,0.2255535,-0.1219466
6288,0.2382111,0.2298502,-0.1203313
6291,0.2382111,0.2298502,-0.1203313
6293,0.2390311,0.2306999,-0.1186941
6295,0.2390311,0.2306999,-0.1186941
6298,0.2390311,0.23239,-0.1186941
6300,0.2398483,0.2315465,-0.1203313
6302,0.2398483,0.2315465,-0.1203313
6305,0.2414744,0.234068,-0.1203313
6307,0.2414744,0.234068,-0.1203313
6309,0.2414744,0.234068,-0.1203313
6312,0.2414744,0.234068,-0.1203313
6315,0.2454926,0.2373883,-0.1203313
6317,0.2470816,0.2382111,-0.1219466
6320,0.2470816,0.2382111,-0.1219466
6322,0.249446,0.2406627,-0.1219466
6324,0.249446,0.2406627,-0.1219466
6327,0.2502292,0.2430897,-0.1219466
6329,0.2470816,0.2382111,-0.1219466
6331,0.2470816,0.2382111,-0.1219466
6334,0.2462884,0.2373883,-0.1235407
6336,0.2462884,0.2373883,-0.1235407
6338,0.1282043,0.1170339,-0.09891172
6341,0.1282043,0.1170339,-0.09891172
6343,0.05934703,0.03956468,-0.08392937
6345,0.0656106,0.04845664,-0.08622923
6348,0.0656106,0.04845664,-0.08622923
6350,0.0656106,0.05233916,-0.08392937
6352,0.0656106,0.05233916,-0.08392937
6355,0.04845664,-0.03426402,-0.07661668
6358,0.08846933,-0.08392937,-0.06255726
6360,0.08846933,-0.08392937,-0.06255726
6363,0.07401875,-0.06255726,-0.06852804
6365,0.07401875,-0.06255726,-0.06852804
6367,0.0656106,-0.04845664,-0.07132626
6369,0.0656106,-0.04845664,-0.07132626
6372,0.05595291,-0.02797646,-0.08156469
6374,0.06255726,0.03426402,-0.08846933
6376,0.06255726,0.03426402,-0.08846933
6379,0.1119058,0.09278741,-0.09891172
6381,0.1119058,0.09278741,-0.09891172
6383,0.1480375,0.1341704,-0.1046783
6386,0.2176059,0.2055842,-0.1153499
6388,0.2176059,0.2055842,-0.1153499
6390,0.2478722,0.235734,-0.1203313
6393,0.2478722,0.235734,-0.1203313
6395,0.2748253,0.2624426,-0.1235407
6397,0.2748253,0.2624426,-0.1235407
6401,0.3165179,0.3045456,-0.1297215
6403,0.339197,0.3280534,-0.1341704
6405,0.339197,0.3280534,-0.1341704
6408,0.358274,0.3471792,-0.1341704
6410,0.358274,0.3471792,-0.1341704
6412,0.3841043,0.3732531,-0.1384764
6415,0.3841043,0.3732531,-0.1384764
6417,0.3921704,0.3815487,-0.1384764
6419,0.4092611,0.3995845,-0.1398823
6422,0.4092611,0.3995845,-0.1398823
6424,0.4177785,0.4087828,-0.1398823
6426,0.4177785,0.4087828,-0.1398823
6429,0.4256662,0.4168407,-0.1398823
6431,0.4256662,0.4159008,-0.1412742
6433,0.4256662,0.4159008,-0.1412742
6436,0.4219727,0.4116447,-0.1426525
6438,0.4219727,0.4116447,-0.1426525
6440,0.4201138,0.4092611,-0.1440177
6444,0.4201138,0.4092611,-0.1440177
6446,0.4168407,0.4054182,-0.1440177
6448,0.4154301,0.403483,-0.14537
6450,0.4154301,0.403483,-0.14537
6453,0.4159008,0.403483,-0.14537
6455,0.4159008,0.403483,-0.14537
6457,0.3763854,0.3636945,-0.1412742
6460,0.3626169,0.3499859,-0.1398823
6462,0.3626169,0.3499859,-0.1398823
6464,0.3758652,0.3642322,-0.1384764
6467,0.3758652,0.3642322,-0.1384764
6469,0.3815487,0.3700944,-0.1398823
6471,0.3815487,0.3700944,-0.1398823
6474,0.3544303,0.3443497,-0.1356209
6476,0.3454843,0.3351346,-0.132704
6478,0.3454843,0.3351346,-0.132704
6481,0.315899,0.3058279,-0.1297215
6483,0.315899,0.3058279,-0.1297215
6486,0.3051875,0.2954137,-0.1297215
6489,0.3051875,0.2954137,-0.1297215
6491,0.2832403,0.272681,-0.1266688
6493,0.2668786,0.2564087,-0.1251145
6496,0.2668786,0.2564087,-0.1251145
6498,0.2601963,0.2502292,-0.1251145
6500,0.2601963,0.2502292,-0.1251145
6503,0.2661444,0.2564087,-0.1251145
6505,0.2755364,0.2654082,-0.1251145
6507,0.2755364,0.2654082,-0.1251145
6510,0.289391,0.2790645,-0.1282043
6512,0.289391,0.2790645,-0.1282043
6514,0.2846186,0.2748253,-0.1282043
6517,0.2846186,0.2748253,-0.1282043
6519,0.2797648,0.268341,-0.1282043
6521,0.2733977,0.2624426,-0.1282043
6524,0.2733977,0.2624426,-0.1282043
6526,0.2654082,0.254109,-0.1282043
6529,0.2654082,0.254109,-0.1282043
6532,0.2866737,0.2748253,-0.1312212
6534,0.2947506,0.2832403,-0.132704
6536,0.2947506,0.2832403,-0.132704
6538,0.2866737,0.2741124,-0.1312212
6541,0.2866737,0.2741124,-0.1312212
6543,0.2832403,0.2712421,-0.132704
6545,0.2832403,0.2712421,-0.132704
6548,0.301316,0.2887141,-0.1341704
6550,0.3077414,0.2954137,-0.1341704
6552,0.3077414,0.2954137,-0.1341704
6555,0.3232465,0.3109043,-0.1356209
6557,0.3232465,0.3109043,-0.1356209
6559,0.3310224,0.3189811,-0.1370561
6562,0.3443497,0.3333784,-0.1370561
6564,0.3443497,0.3333784,-0.1370561
6566,0.3505445,0.339197,-0.1370561
6569,0.3505445,0.339197,-0.1370561
6572,0.3310224,0.3202056,-0.1341704
6574,0.3310224,0.3202056,-0.1341704
6577,0.3238513,0.3127867,-0.1341704
6579,0.3232465,0.3127867,-0.1312212
6581,0.3232465,0.3127867,-0.1312212
6584,0.3280534,0.3171355,-0.132704
6586,0.3280534,0.3171355,-0.132704
6588,0.3380413,0.3280534,-0.132704
6591,0.3380413,0.3280534,-0.132704
6593,0.343781,0.3339648,-0.132704
6595,0.3357179,0.3262592,-0.132704
6598,0.3357179,0.3262592,-0.132704
6600,0.3256589,0.3165179,-0.1312212
6602,0.3256589,0.3165179,-0.1312212
6605,0.3310224,0.3208161,-0.132704
6607,0.332791,0.3226406,-0.132704
6609,0.332791,0.3226406,-0.132704
6612,0.3409232,0.3316129,-0.1341704
6615,0.3409232,0.3316129,-0.1341704
6617,0.3471792,0.3368816,-0.132704
6620,0.3471792,0.3368816,-0.132704
6622,0.3397734,0.3286494,-0.132704
6624,0.3214254,0.3102743,-0.1312212
6626,0.3214254,0.3102743,-0.1312212
6629,0.324455,0.3134116,-0.132704
6631,0.324455,0.3134116,-0.132704
6633,0.3286494,0.3177519,-0.1341704
6636,0.3177519,0.3071049,-0.132704
6638,0.3177519,0.3071049,-0.132704
6640,0.301316,0.2900664,-0.1312212
6643,0.301316,0.2900664,-0.1312212
6645,0.2934199,0.2825486,-0.1297215
6647,0.2934199,0.2825486,-0.1297215
6650,0.2804634,0.2705197,-0.1282043
6652,0.2755364,0.2661444,-0.1266688
6654,0.2755364,0.2661444,-0.1266688
6658,0.2624426,0.2525642,-0.1235407
6660,0.2624426,0.2525642,-0.1235407
6662,0.2676108,0.2586879,-0.1251145
6665,0.276953,0.2676108,-0.1251145
6667,0.276953,0.2676108,-0.1251145
6669,0.2818553,0.2733977,-0.1251145
6672,0.2818553,0.2733977,-0.1251145
6674,0.2804634,0.2712421,-0.1235407
6676,0.2804634,0.2712421,-0.1235407
6679,0.2733977,0.2646699,-0.1219466
6681,0.2690692,0.2594432,-0.1219466
6683,0.2690692,0.2594432,-0.1219466
6686,0.2624426,0.2533378,-0.1235407
6688,0.2624426,0.2533378,-0.1235407
6690,0.2571706,0.249446,-0.1219466
6693,0.2571706,0.249446,-0.1219466
6695,0.2533378,0.2446942,-0.1219466
6697,0.2470816,0.2382111,-0.1203313
6701,0.2470816,0.2382111,-0.1203313
6703,0.2446942,0.2365626,-0.1203313
6705,0.2446942,0.2365626,-0.1203313
6708,0.2414744,0.234068,-0.1203313
6710,0.2373883,0.2289973,-0.1203313
6712,0.2373883,0.2289973,-0.1203313
6714,0.2332305,0.2229358,-0.1203313
6717,0.2332305,0.2229358,-0.1203313
6719,0.2306999,0.2211734,-0.1203313
6721,0.2306999,0.2211734,-0.1203313
6724,0.254109,0.2462884,-0.1203313
6726,0.2907402,0.2839303,-0.1235407
6728,0.2907402,0.2839303,-0.1235407
6731,0.2927522,0.2880355,-0.1219466
6733,0.2927522,0.2880355,-0.1219466
6735,0.2940859,0.289391,-0.1219466
6738,0.2825486,0.276953,-0.1219466
6740,0.2825486,0.276953,-0.1219466
6743,0.2783625,0.2719625,-0.1219466
6746,0.2783625,0.2719625,-0.1219466
6748,0.2705197,0.2646699,-0.1203313
6750,0.2705197,0.2646699,-0.1203313
6753,0.2668786,0.2624426,-0.1203313
6755,0.2594432,0.2533378,-0.1219466
6757,0.2594432,0.2533378,-0.1219466
6760,0.2579304,0.2502292,-0.1219466
6762,0.2579304,0.2502292,-0.1219466
6764,0.2525642,0.2438933,-0.1219466
6767,0.2525642,0.2438933,-0.1219466
6769,0.2470816,0.2382111,-0.1251145
6771,0.2454926,0.2349025,-0.1251145
6774,0.2454926,0.2349025,-0.1251145
6776,0.2414744,0.2306999,-0.1251145
6778,0.2414744,0.2306999,-0.1251145
6781,0.2390311,0.2272819,-0.1266688
6784,0.235734,0.2238118,-0.1266688
6786,0.235734,0.2238118,-0.1266688
6789,0.235734,0.2238118,-0.1282043
6791,0.235734,0.2238118,-0.1282043
6793,0.2373883,0.2255535,-0.1282043
6796,0.2373883,0.2255535,-0.1282043
6798,0.2556444,0.2438933,-0.1312212
6800,0.2832403,0.2705197,-0.1341704
6802,0.2832403,0.2705197,-0.1341704
6805,0.3058279,0.2940859,-0.1370561
6807,0.3058279,0.2940859,-0.1370561
6809,0.3403488,0.329838,-0.1398823
6812,0.3533245,0.3420692,-0.1412742
6814,0.3533245,0.3420692,-0.1412742
6816,0.373777,0.3620769,-0.1440177
6819,0.373777,0.3620769,-0.1440177
6821,0.3851218,0.3727285,-0.1467098
6823,0.3851218,0.3727285,-0.1467098
6827,0.3906707,0.3779418,-0.1467098
6829,0.4063823,0.3946573,-0.1467098
6831,0.4063823,0.3946573,-0.1467098
6834,0.4130683,0.4015385,-0.1480375
6836,0.4130683,0.4015385,-0.1480375
6838,0.4130683,0.4015385,-0.1480375
6841,0.4130683,0.4015385,-0.1480375
6843,0.4130683,0.4015385,-0.1480375
6845,0.3971285,0.386643,-0.1440177
6848,0.3971285,0.386643,-0.1440177
6850,0.3820612,0.3711503,-0.1412742
6852,0.3820612,0.3711503,-0.1412742
6855,0.3511023,0.3403488,-0.1356209
6857,0.3357179,0.3256589,-0.1312212
6859,0.3357179,0.3256589,-0.1312212
6862,0.3250574,0.3165179,-0.1266688
6864,0.3250574,0.3165179,-0.1266688
6866,0.3250574,0.3183671,-0.1235407
6870,0.3250574,0.3183671,-0.1235407
6872,0.3339648,0.329838,-0.1203313
6874,0.3374619,0.3339648,-0.1186941
6877,0.3374619,0.3339648,-0.1186941
6879,0.3449174,0.3443497,-0.1136409
6881,0.3449174,0.3443497,-0.1136409
6884,0.3494264,0.3494264,-0.1136409
6886,0.3566318,0.3577275,-0.1101434
6888,0.3566318,0.3577275,-0.1101434
6890,0.3593647,0.3620769,-0.1083524
6893,0.3593647,0.3620769,-0.1083524
6895,0.365305,0.3679734,-0.1065312
6897,0.365305,0.3679734,-0.1065312
6900,0.3679734,0.3711503,-0.1046783
6902,0.3727285,0.3758652,-0.1065312
6904,0.3727285,0.3758652,-0.1065312
6907,0.3748225,0.3774237,-0.1065312
6909,0.3748225,0.3774237,-0.1065312
6912,0.3774237,0.3784592,-0.1065312
6915,0.3779418,0.3794918,-0.1101434
6917,0.3779418,0.3794918,-0.1101434
6919,0.3784592,0.3800071,-0.1101434
6922,0.3784592,0.3800071,-0.1101434
6924,0.3805216,0.382573,-0.1101434
6926,0.3805216,0.382573,-0.1101434
6929,0.3711503,0.3743001,-0.1083524
6931,0.360452,0.3626169,-0.1101434
6933,0.360452,0.3626169,-0.1101434
6936,0.3560827,0.3588198,-0.1083524
6938,0.3560827,0.3588198,-0.1083524
6940,0.3789758,0.382573,-0.1101434
6943,0.3789758,0.382573,-0.1101434
6945,0.3881583,0.3916712,-0.1101434
6947,0.4087828,0.409739,-0.1153499
6950,0.4087828,0.409739,-0.1153499
6952,0.4168407,0.4173099,-0.1170339
6955,0.4168407,0.4173099,-0.1170339
6958,0.3981127,0.3971285,-0.1203313
6960,0.3916712,0.3896677,-0.1219466
6962,0.3916712,0.3896677,-0.1219466
6965,0.3901695,0.3856296,-0.1235407
6967,0.3901695,0.3856296,-0.1235407
6969,0.3906707,0.3851218,-0.1282043
6972,0.3906707,0.3851218,-0.1282043
6974,0.3916712,0.3856296,-0.1282043
6976,0.3951527,0.3886621,-0.1297215
6978,0.3951527,0.3886621,-0.1297215
6981,0.3966355,0.3896677,-0.1312212
6983,0.3966355,0.3896677,-0.1312212
6985,0.3986039,0.3911712,-0.132704
6988,0.3990945,0.3906707,-0.132704
6990,0.3990945,0.3906707,-0.132704
6992,0.4000739,0.3911712,-0.1356209
6995,0.4000739,0.3911712,-0.1356209
6998,0.268341,0.2609472,-0.1083524
7000,0.268341,0.2609472,-0.1083524
7003,0.2185032,0.2112177,-0.09691329
7005,0.2349025,0.2281412,-0.09891172
7007,0.2349025,0.2281412,-0.09891172
7010,0.2579304,0.2517883,-0.1027921
7012,0.2579304,0.2517883,-0.1027921
7014,0.2783625,0.2719625,-0.1065312
7017,0.3083766,0.301316,-0.1101434
7019,0.3083766,0.301316,-0.1101434
7021,0.329838,0.324455,-0.1136409
7024,0.329838,0.324455,-0.1136409
7026,0.3380413,0.3333784,-0.1153499
7028,0.3380413,0.3333784,-0.1153499
7031,0.3232465,0.3183671,-0.1153499
7033,0.3171355,0.3127867,-0.1153499
7035,0.3171355,0.3127867,-0.1153499
7038,0.2940859,0.2887141,-0.1153499
7041,0.2940859,0.2887141,-0.1153499
7043,0.2846186,0.2797648,-0.1153499
7046,0.2846186,0.2797648,-0.1153499
7048,0.3090104,0.3051875,-0.1170339
7050,0.3256589,0.3220336,-0.1186941
7053,0.3256589,0.3220336,-0.1186941
7055,0.2533378,0.25101,-0.1046783
7057,0.2533378,0.25101,-0.1046783
7059,0.1467098,0.1440177,-0.08392937
7062,0.1398823,0.1384764,-0.08156469
7064,0.1398823,0.1384764,-0.08156469
7066,0.1282043,0.1266688,-0.08392937
7069,0.1282043,0.1266688,-0.08392937
7071,0.1557664,0.1532334,-0.08846933
7073,0.1780411,0.1758294,-0.09278741
7076,0.1968319,0.1928145,-0.09278741
7078,0.235734,0.2315465,-0.1008706
7080,0.235734,0.2315465,-0.1008706
7084,0.2556444,0.2525642,-0.1008706
7086,0.2556444,0.2525642,-0.1008706
7088,0.2654082,0.261696,-0.1083524
7091,0.2690692,0.2654082,-0.1101434
7093,0.2690692,0.2654082,-0.1101434
7095,0.2712421,0.2676108,-0.1119058
7098,0.2712421,0.2676108,-0.1119058
7100,0.2719625,0.2661444,-0.1136409
7102,0.2719625,0.2661444,-0.1136409
7105,0.2927522,0.2873554,-0.1170339
7107,0.3109043,0.3051875,-0.1203313
7109,0.3109043,0.3051875,-0.1203313
7112,0.3250574,0.3189811,-0.1219466
7114,0.3250574,0.3189811,-0.1219466
7116,0.3238513,0.3189811,-0.1219466
7119,0.2430897,0.2382111,-0.1065312
7121,0.2430897,0.2382111,-0.1065312
7123,0.1235407,0.1170339,-0.08392937
7127,0.1235407,0.1170339,-0.08392937
7129,0.05595291,0.04845664,-0.07132626
7131,0.05595291,0.04845664,-0.07132626
7134,0.07132626,-0.0656106,-0.04845664
7136,0.05934703,-0.05595291,-0.04845664
7138,0.05934703,-0.05595291,-0.04845664
7141,0.05595291,-0.04845664,-0.04845664
7143,0.05595291,-0.04845664,-0.04845664
7145,0.06852804,-0.06255726,-0.04423466
7147,0.06852804,-0.06255726,-0.04423466
7150,0.08156469,-0.07912937,-0.04423466
7152,0.1312212,-0.1282043,-0.02797646
7154,0.1312212,-0.1282043,-0.02797646
7157,0.1607126,-0.1570175,-0.02797646
7159,0.1607126,-0.1570175,-0.02797646
7161,0.1876719,-0.1845175,-0.01978234
7164,0.2139789,-0.2112177,0
7166,0.2139789,-0.2112177,0
7169,0.2306999,-0.2264194,0
7172,0.2306999,-0.2264194,0
7174,0.2349025,-0.2315465,0
7176,0.2349025,-0.2315465,0
7179,0.249446,-0.2462884,0
7181,0.2579304,-0.254109,0
7183,0.2579304,-0.254109,0
7186,0.1928145,-0.1907741,0
7188,0.1928145,-0.1907741,0
7190,0.1356209,-0.132704,-0.01978234
7193,0.02797646,-0.01978234,-0.04423466
7195,0.02797646,-0.01978234,-0.04423466
7197,0.04423466,0.03426402,-0.05595291
7200,0.04423466,0.03426402,-0.05595291
7202,0.1440177,0.1384764,-0.07661668
7204,0.1440177,0.1384764,-0.07661668
7207,0.1897456,0.1855749,-0.08622923
7209,0.2601963,0.2548778,-0.1027921
7212,0.2601963,0.2548778,-0.1027921
7215,0.2705197,0.2646699,-0.1083524
7217,0.2705197,0.2646699,-0.1083524
7219,0.289391,0.2825486,-0.1136409
7222,0.289391,0.2825486,-0.1136409
7224,0.3304307,0.3238513,-0.1219466
7226,0.3471792,0.3409232,-0.1219466
7229,0.3471792,0.3409232,-0.1219466
7231,0.3460502,0.3409232,-0.1235407
7233,0.3460502,0.3409232,-0.1235407
7235,0.3477423,0.3414966,-0.1251145
7238,0.3716771,0.3674413,-0.1266688
7240,0.3716771,0.3674413,-0.1266688
7242,0.382573,0.3779418,-0.1282043
7245,0.382573,0.3779418,-0.1282043
7247,0.403483,0.3995845,-0.1312212
7249,0.403483,0.3995845,-0.1312212
7252,0.4125943,0.4083038,-0.132704
7255,0.4177785,0.414487,-0.1312212
7257,0.4177785,0.414487,-0.1312212
7260,0.4210443,0.4182466,-0.1297215
7262,0.4210443,0.4182466,-0.1297215
7264,0.4329587,0.4302385,-0.1312212
7267,0.4441136,0.4410186,-0.1312212
7269,0.4441136,0.4410186,-0.1312212
7271,0.4493696,0.4471871,-0.1312212
7274,0.4493696,0.4471871,-0.1312212
7276,0.4597013,0.4584226,-0.1297215
7278,0.4597013,0.4584226,-0.1297215
7281,0.4558544,0.4532716,-0.1297215
7283,0.4524074,0.4480613,-0.1312212
7285,0.4524074,0.4480613,-0.1312212
7288,0.4401304,0.4370072,-0.1282043
7290,0.4401304,0.4370072,-0.1282043
7292,0.4370072,0.4338616,-0.1266688
7296,0.4302385,0.427501,-0.1235407
7298,0.4302385,0.427501,-0.1235407
7300,0.4284154,0.4256662,-0.1235407
7303,0.4284154,0.4256662,-0.1235407
7305,0.4247459,0.4228991,-0.1219466
7307,0.4247459,0.4228991,-0.1219466
7310,0.4242849,0.4224361,-0.1203313
7312,0.4025119,0.4010509,-0.1186941
7314,0.4025119,0.4010509,-0.1186941
7317,0.3846134,0.3841043,-0.1170339
7319,0.3846134,0.3841043,-0.1170339
7321,0.3663747,0.365305,-0.1153499
7323,0.3663747,0.365305,-0.1153499
7326,0.3620769,0.3620769,-0.1136409
7328,0.3609945,0.3609945,-0.1119058
7330,0.3609945,0.3609945,-0.1119058
7333,0.3626169,0.3620769,-0.1119058
7335,0.3626169,0.3620769,-0.1119058
7337,0.3727285,0.3727285,-0.1153499
7341,0.386643,0.3856296,-0.1170339
7343,0.386643,0.3856296,-0.1170339
7345,0.3280534,0.3274564,-0.1065312
7348,0.3280534,0.3274564,-0.1065312
7350,0.2390311,0.2390311,-0.08846933
7352,0.2390311,0.2390311,-0.08846933
7355,0.2398483,0.2398483,-0.08846933
7357,0.2382111,0.2390311,-0.08846933
7359,0.2382111,0.2390311,-0.08846933
7362,0.2365626,0.2373883,-0.08846933
7364,0.2365626,0.2373883,-0.08846933
7366,0.2646699,0.2639296,-0.09278741
7369,0.2880355,0.2880355,-0.09891172
7371,0.2880355,0.2880355,-0.09891172
7373,0.2987072,0.2987072,-0.1008706
7376,0.2987072,0.2987072,-0.1008706
7378,0.2571706,0.2579304,-0.09065409
7380,0.2571706,0.2579304,-0.09065409
7384,0.2158,0.2148914,-0.08392937
7386,0.1170339,0.1186941,-0.0656106
7388,0.1170339,0.1186941,-0.0656106
7391,0.0656106,0.0656106,-0.05595291
7393,0.0656106,0.0656106,-0.05595291
7395,0.03426402,-0.03426402,-0.03956468
7398,0.03426402,-0.03426402,-0.03956468
7400,0.07661668,-0.07401875,-0.02797646
7402,0.1370561,-0.1341704,-0.01978234
7405,0.1370561,-0.1341704,-0.01978234
7407,0.1780411,-0.1758294,0
7409,0.1780411,-0.1758294,0
7411,0.1968319,-0.1938267,0
7414,0.2139789,-0.2112177,0
7416,0.2139789,-0.2112177,0
7418,0.234068,-0.2306999,0
7421,0.234068,-0.2306999,0
7424,0.2446942,-0.2414744,0
7426,0.2446942,-0.2414744,0
7429,0.1813082,-0.1780411,0
7431,0.08846933,-0.08622923,-0.02797646
7433,0.08846933,-0.08622923,-0.02797646
7436,0.05934703,-0.05233916,-0.03426402
7438,0.05934703,-0.05233916,-0.03426402
7440,0.08392937,-0.07912937,-0.02797646
7443,0.09487279,-0.09065409,-0.01978234
7445,0.09487279,-0.09065409,-0.01978234
7447,0.1412742,-0.1384764,-0.01978234
7450,0.1412742,-0.1384764,-0.01978234
7452,0.1619255,-0.1582588,-0.01978234
7454,0.1619255,-0.1582588,-0.01978234
7457,0.199792,-0.1978235,0
7459,0.1582588,-0.1557664,-0.01978234
7461,0.1582588,-0.1557664,-0.01978234
7464,0.1119058,-0.1083524,-0.01978234
7467,0.1119058,-0.1083524,-0.01978234
7469,0.07661668,-0.07132626,-0.02797646
7472,0.07661668,-0.07401875,-0.02797646
7474,0.07661668,-0.07401875,-0.02797646
7476,0.07912937,-0.07401875,-0.01978234
7479,0.07912937,-0.07401875,-0.01978234
7481,0.1027921,-0.09891172,-0.01978234
7483,0.1027921,-0.09891172,-0.01978234
7486,0.1398823,-0.1356209,-0.01978234
7488,0.165511,-0.1619255,0
7490,0.165511,-0.1619255,0
7493,0.174713,-0.1713202,0
7495,0.174713,-0.1713202,0
7497,0.2065338,-0.2036718,0
7499,0.2065338,-0.2036718,0
7502,0.2193969,-0.2158,0
7504,0.2255535,-0.2220564,0
7506,0.2255535,-0.2220564,0
7510,0.2289973,-0.2264194,0
7512,0.2289973,-0.2264194,0
7514,0.2264194,-0.2238118,0
7517,0.2272819,-0.2246844,0
7519,0.2272819,-0.2246844,0
7521,0.1619255,-0.1594904,0
7524,0.1619255,-0.1594904,0
7526,0.0656106,-0.05934703,-0.03426402
7528,0.0656106,-0.05934703,-0.03426402
7531,0.0656106,-0.06255726,-0.02797646
7533,0.06255726,-0.05934703,-0.03426402
7535,0.06255726,-0.05934703,-0.03426402
7538,0.07661668,-0.07401875,-0.03426402
7540,0.07661668,-0.07401875,-0.03426402
7542,0.09891172,-0.09691329,-0.02797646
7545,0.1136409,-0.1101434,-0.01978234
7547,0.1136409,-0.1101434,-0.01978234
7549,0.1251145,-0.1219466,-0.01978234
7553,0.1251145,-0.1219466,-0.01978234
7555,0.1251145,-0.1219466,-0.01978234
7557,0.1251145,-0.1219466,-0.01978234
7560,0.1251145,-0.1219466,-0.01978234
7562,0.09691329,-0.09278741,-0.02797646
7564,0.09691329,-0.09278741,-0.02797646
7567,0.09691329,-0.09278741,-0.03426402
7569,0.09691329,-0.09278741,-0.03426402
7571,0.1203313,-0.1170339,-0.01978234
7574,0.1297215,-0.1251145,-0.02797646
7576,0.1297215,-0.1251145,-0.02797646
7578,0.166689,-0.1631294,0
7581,0.166689,-0.1631294,0
7583,0.1791368,-0.1758294,0
7585,0.1791368,-0.1758294,0
7587,0.1978235,-0.1948336,0
7590,0.2027088,-0.199792,0
7592,0.2027088,-0.199792,0
7595,0.2185032,-0.2148914,0
7598,0.2185032,-0.2148914,0
7600,0.2281412,-0.2246844,0
7602,0.2281412,-0.2246844,0
7605,0.235734,-0.2332305,0
7607,0.2525642,-0.249446,0
7609,0.2525642,-0.249446,0
7612,0.2586879,-0.2564087,0
7614,0.2586879,-0.2564087,0
7616,0.2705197,-0.2668786,0
7619,0.2733977,-0.2705197,0
7621,0.2733977,-0.2705197,0
7623,0.2790645,-0.276953,0
7626,0.2790645,-0.276953,0
7628,0.2818553,-0.2790645,0
7630,0.2818553,-0.2790645,0
7633,0.2797648,-0.2762456,0
7635,0.2797648,-0.2755364,0
7638,0.2797648,-0.2755364,0
7641,0.2783625,-0.2741124,0
7643,0.2783625,-0.2741124,0
7645,0.2783625,-0.2733977,0
7648,0.276953,-0.2733977,0
7650,0.276953,-0.2733977,0
7652,0.2783625,-0.2748253,0
7655,0.2783625,-0.2748253,0
7657,0.2804634,-0.2762456,0
7659,0.2804634,-0.2762456,0
7662,0.2825486,-0.2783625,0
7664,0.2839303,-0.2797648,0
7666,0.2839303,-0.2797648,0
7668,0.2755364,-0.272681,0
7671,0.2755364,-0.272681,0
7673,0.2705197,-0.2668786,0
7675,0.2705197,-0.2668786,0
7678,0.2646699,-0.2609472,0.01978234
7681,0.2624426,-0.2594432,0
7683,0.2624426,-0.2594432,0
7686,0.2564087,-0.2533378,0
7688,0.2564087,-0.2533378,0
7690,0.2502292,-0.2462884,0
7693,0.2462884,-0.2430897,0
7695,0.2462884,-0.2430897,0
7697,0.2486604,-0.2454926,0
7700,0.2486604,-0.2454926,0
7702,0.2486604,-0.2454926,0
7704,0.2486604,-0.2454926,0
7707,0.1219466,-0.1186941,0
7709,0.07401875,-0.07132626,-0.01978234
7711,0.07401875,-0.07132626,-0.01978234
7714,0.05595291,0.05595291,-0.04845664
7716,0.05595291,0.05595291,-0.04845664
7718,0.1046783,0.1046783,-0.05595291
7721,0.2007689,0.2017412,-0.07401875
7724,0.2007689,0.2017412,-0.07401875
7726,0.2390311,0.2406627,-0.08156469
7729,0.2390311,0.2406627,-0.08156469
7731,0.3019647,0.3032579,-0.09487279
7733,0.3019647,0.3032579,-0.09487279
7736,0.3286494,0.3292442,-0.09891172
7738,0.234068,0.235734,-0.08156469
7740,0.234068,0.235734,-0.08156469
7743,0.2017412,0.2027088,-0.07661668
7745,0.2017412,0.2027088,-0.07661668
7747,0.09065409,0.09065409,-0.05934703
7750,0.05233916,0.05233916,-0.05233916
7752,0.05233916,0.05233916,-0.05233916
7754,0.09065409,0.09065409,-0.05595291
7756,0.09065409,0.09065409,-0.05595291
7759,0.1065312,0.1046783,-0.05934703
7761,0.1065312,0.1046783,-0.05934703
7763,0.04845664,0.04845664,-0.05233916
7767,0,0,-0.03956468
7769,0,0,-0.03956468
7771,0.03426402,-0.02797646,-0.03426402
7774,0.03426402,-0.02797646,-0.03426402
7776,0.08846933,-0.08392937,-0.02797646
7778,0.08846933,-0.08392937,-0.02797646
7781,0.1186941,-0.1153499,-0.01978234
7783,0.165511,-0.1619255,0
7785,0.165511,-0.1619255,0
7788,0.1845175,-0.1823843,0
7790,0.1845175,-0.1823843,0
7792,0.2167048,-0.2121421,0
7795,0.2398483,-0.235734,0
7797,0.2398483,-0.235734,0
7799,0.249446,-0.2454926,0
7802,0.249446,-0.2454926,0
7804,0.2646699,-0.2609472,0
7806,0.2646699,-0.2609472,0
7810,0.2712421,-0.2668786,0
7812,0.2818553,-0.276953,0.01978234
7814,0.2818553,-0.276953,0.01978234
7817,0.2859903,-0.2811602,0.01978234
7819,0.2859903,-0.2811602,0.01978234
7821,0.2185032,-0.2139789,0
7824,0.1607126,-0.1570175,0
7826,0.1607126,-0.1570175,0
7828,0.04423466,-0.03426402,-0.02797646
7831,0.04423466,-0.03426402,-0.02797646
7833,0.01978234,0.01978234,-0.03426402
7835,0.01978234,0.01978234,-0.03426402
7838,0.1170339,0.1219466,-0.05233916
7840,0.1607126,0.1643245,-0.06255726
7842,0.1607126,0.1643245,-0.06255726
7844,0.23239,0.235734,-0.07401875
7847,0.23239,0.235734,-0.07401875
7849,0.2887141,0.2920831,-0.08392937
7852,0.3077414,0.3109043,-0.08846933
7855,0.3077414,0.3109043,-0.08846933
7857,0.3414966,0.3443497,-0.09278741
7859,0.3414966,0.3443497,-0.09278741
7862,0.3511023,0.3544303,-0.09691329
7864,0.3511023,0.3544303,-0.09691329
7866,0.3722032,0.3748225,-0.1008706
7869,0.3784592,0.3810355,-0.1008706
7871,0.3784592,0.3810355,-0.1008706
7873,0.3921704,0.3946573,-0.1046783
7876,0.3921704,0.3946573,-0.1046783
7878,0.3995845,0.4025119,-0.1046783
7880,0.3995845,0.4025119,-0.1046783
7883,0.4073442,0.4102162,-0.1046783
7885,0.4059006,0.4092611,-0.1027921
7887,0.4059006,0.4092611,-0.1027921
7890,0.4083038,0.4111691,-0.1027921
7892,0.4083038,0.4111691,-0.1027921
7895,0.4111691,0.414487,-0.1027921
7898,0.4116447,0.4154301,-0.1008706
7900,0.4116447,0.4154301,-0.1008706
7902,0.3397734,0.3432113,-0.08846933
7905,0.3397734,0.3432113,-0.08846933
7907,0.2790645,0.2832403,-0.07661668
7909,0.2790645,0.2832403,-0.07661668
7912,0.2298502,0.234068,-0.0656106
7914,0.0656106,0.07401875,-0.03956468
7916,0.0656106,0.07401875,-0.03956468
7919,0.04845664,-0.04423466,-0.01978234
7921,0.04845664,-0.04423466,-0.01978234
7923,0.09487279,-0.09065409,-0.01978234
7926,0.1643245,-0.1582588,0
7928,0.1643245,-0.1582588,0
7930,0.1907741,-0.1866263,0
7932,0.1907741,-0.1866263,0
7936,0.2289973,-0.2238118,0
7938,0.2289973,-0.2238118,0
7940,0.2430897,-0.2382111,0
7943,0.2676108,-0.2631872,0
7945,0.2676108,-0.2631872,0
7947,0.2654082,-0.261696,0
7950,0.2654082,-0.261696,0
7952,0.2676108,-0.2631872,0
7954,0.2676108,-0.2631872,0
7957,0.2776587,-0.2748253,0
7959,0.2846186,-0.2811602,0
7961,0.2846186,-0.2811602,0
7964,0.2776587,-0.2755364,0
7966,0.2776587,-0.2755364,0
7968,0.276953,-0.2755364,0
7971,0.268341,-0.2668786,0
7973,0.268341,-0.2668786,0
7975,0.2676108,-0.2661444,0
7979,0.2676108,-0.2661444,0
7981,0.2624426,-0.261696,0
7983,0.2624426,-0.261696,0
7986,0.2624426,-0.261696,0
7988,0.2690692,-0.268341,0
7990,0.2690692,-0.268341,0
7993,0.272681,-0.2733977,0
7995,0.272681,-0.2733977,0
7997,0.2676108,-0.2676108,0
8000,0.2676108,-0.2668786,0
8002,0.2676108,-0.2668786,0
8004,0.2609472,-0.2601963,0
8007,0.2609472,-0.2601963,0
8009,0.2609472,-0.2594432,-0.01978234
8011,0.2609472,-0.2594432,-0.01978234
8014,0.2556444,-0.2556444,0
8016,0.2525642,-0.2525642,-0.01978234
8018,0.2525642,-0.2525642,-0.01978234
8020,0.25101,-0.2486604,-0.01978234
8024,0.25101,-0.2486604,-0.01978234
8026,0.2486604,-0.2470816,-0.01978234
8028,0.2462884,-0.2438933,-0.01978234
8031,0.2462884,-0.2438933,-0.01978234
8033,0.2422834,-0.2414744,-0.01978234
8035,0.2422834,-0.2414744,-0.01978234
8038,0.2398483,-0.2382111,-0.02797646
8040,0.2398483,-0.2382111,-0.02797646
8042,0.234068,-0.234068,0
8045,0.2298502,-0.2289973,-0.01978234
8047,0.2298502,-0.2289973,-0.01978234
8049,0.2246844,-0.2229358,-0.01978234
8052,0.2246844,-0.2229358,-0.01978234
8054,0.2211734,-0.2193969,-0.01978234
8056,0.2211734,-0.2193969,-0.01978234
8059,0.2158,-0.2139789,0
8061,0.2211734,-0.220287,0
8064,0.2211734,-0.220287,0
8067,0.2264194,-0.2238118,-0.01978234
8069,0.2264194,-0.2238118,-0.01978234
8071,0.2289973,-0.2272819,0
8074,0.2289973,-0.2264194,0
8076,0.2289973,-0.2264194,0
8078,0.2246844,-0.2220564,0
8081,0.2246844,-0.2220564,0
8083,0.2211734,-0.2193969,-0.01978234
8085,0.2211734,-0.2193969,-0.01978234
8088,0.1467098,-0.1440177,-0.01978234
8090,0.03956468,-0.03426402,-0.03426402
8092,0.03956468,-0.03426402,-0.03426402
8095,0.03426402,0.02797646,-0.04845664
8097,0.03426402,0.02797646,-0.04845664
8099,0.1341704,0.1297215,-0.07132626
8102,0.1855749,0.1802258,-0.08392937
8104,0.1855749,0.1802258,-0.08392937
8107,0.2661444,0.2601963,-0.09891172
8109,0.2661444,0.2601963,-0.09891172
8112,0.23239,0.2272819,-0.09278741
8114,0.23239,0.2272819,-0.09278741
8116,0.1855749,0.1802258,-0.08392937
8119,0.1713202,0.165511,-0.08156469
8121,0.1713202,0.165511,-0.08156469
8123,0.2046302,0.199792,-0.08846933
8126,0.2046302,0.199792,-0.08846933
8128,0.2185032,0.2139789,-0.09065409
8130,0.2185032,0.2139789,-0.09065409
8133,0.2646699,0.2586879,-0.1046783
8135,0.2839303,0.2776587,-0.1083524
8137,0.2839303,0.2776587,-0.1083524
8140,0.3202056,0.3121605,-0.1203313
8142,0.3202056,0.3121605,-0.1203313
8144,0.3357179,0.3274564,-0.1235407
8147,0.3615361,0.3511023,-0.132704
8150,0.3615361,0.3511023,-0.132704
8152,0.3789758,0.3679734,-0.1370561
8155,0.3789758,0.3679734,-0.1370561
8157,0.3856296,0.3743001,-0.1398823
8159,0.3856296,0.3743001,-0.1398823
8162,0.4005627,0.3896677,-0.1440177
8164,0.4087828,0.3976209,-0.1467098
8166,0.4087828,0.3976209,-0.1467098
8169,0.4242849,0.4130683,-0.1493534
