time,turnedAngle,pitchAngle,yawAngle
 329,0,0,0
167379,0,0,0
167382,0,0,0
167385,0,0,0
167387,0.315279,0.3189811,-0.01978234
0,0.315279,0.3189811,-0.01978234
1,0.3127867,0.3165179,-0.02797646
2,0.3127867,0.3165179,-0.02797646
4,0.309643,0.3134116,0
5,0.309643,0.3134116,0
7,0.3083766,0.3121605,0
8,0.3083766,0.3121605,0
10,0.2880355,0.2914124,0
12,0.2705197,0.2741124,0
14,0.2705197,0.2741124,0
16,0.2654082,0.2690692,0
19,0.2654082,0.2690692,0
21,0.261696,0.2646699,0
23,0.261696,0.2646699,0
25,0.2454926,0.2478722,0
27,0.2454926,0.2478722,0
29,0.2315465,0.234068,-0.01978234
32,0.2315465,0.234068,-0.01978234
34,0.2193969,0.2220564,0
36,0.2193969,0.2220564,0
38,0.2046302,0.2065338,0
40,0.1897456,0.1907741,0
43,0.1897456,0.1907741,0
46,0.1769387,0.1769387,0
48,0.1769387,0.1769387,0
50,0.1769387,0.1769387,0
52,0.1769387,0.1769387,0
54,0.1545051,0.1545051,0
56,0.1545051,0.1545051,0
58,0.14537,0.14537,0
61,0.14537,0.14537,0
63,0.1384764,0.1384764,0
65,0.1384764,0.1384764,0
67,0.132704,0.132704,0
69,0.1297215,0.1282043,0
71,0.1297215,0.1282043,0
74,0.1426525,0.1426525,0
76,0.1426525,0.1426525,0
78,0.1532334,0.1532334,0
80,0.1532334,0.1532334,0
82,0.1631294,0.1631294,0
84,0.1631294,0.1631294,0
88,0.1701742,0.1713202,0
90,0.1701742,0.1713202,0
92,0.1769387,0.1780411,0
94,0.1769387,0.1780411,0
96,0.1631294,0.1643245,0
98,0.1532334,0.1532334,0
100,0.1532334,0.1532334,0
103,0.1532334,0.1545051,0
105,0.1532334,0.1545051,0
107,0.1412742,0.1426525,0
109,0.1412742,0.1426525,0
112,0.1312212,0.1312212,0
114,0.1312212,0.1312212,0
116,0.1219466,0.1235407,0
118,0.1297215,0.132704,0
121,0.1297215,0.132704,0
123,0.1370561,0.1398823,0
125,0.1370561,0.1398823,0
128,0.1493534,0.1519511,0
131,0.1493534,0.1519511,0
133,0.1594904,0.1619255,0
135,0.1519511,0.1545051,0
137,0.1519511,0.1545051,0
140,0.14537,0.1480375,0
142,0.14537,0.1480375,0
144,0.1594904,0.1619255,0
146,0.1594904,0.1619255,0
149,0.1631294,0.166689,0
151,0.1631294,0.166689,0
153,0.1519511,0.1545051,0
155,0.1440177,0.14537,0
158,0.1440177,0.14537,0
160,0.1480375,0.1519511,0
162,0.1480375,0.1519511,0
164,0.1519511,0.1570175,-0.01978234
166,0.1519511,0.1570175,-0.01978234
169,0.1594904,0.1631294,0
172,0.1594904,0.1631294,0
174,0.1643245,0.1690205,0
176,0.1713202,0.174713,-0.01978234
179,0.1713202,0.174713,-0.01978234
181,0.1769387,0.1802258,-0.01978234
183,0.1769387,0.1802258,-0.01978234
185,0.1813082,0.1845175,-0.01978234
188,0.1813082,0.1845175,-0.01978234
190,0.1845175,0.1887116,-0.01978234
192,0.1897456,0.191797,0
194,0.1897456,0.191797,0
197,0.1938267,0.1968319,0
199,0.1938267,0.1968319,0
201,0.1968319,0.199792,-0.01978234
203,0.1968319,0.199792,-0.01978234
206,0.199792,0.2036718,-0.01978234
208,0.199792,0.2036718,-0.01978234
210,0.2046302,0.2065338,-0.01978234
212,0.2055842,0.2102893,0
216,0.2055842,0.2102893,0
218,0.2093567,0.2121421,-0.01978234
220,0.2093567,0.2121421,-0.01978234
222,0.2112177,0.2158,0
225,0.2112177,0.2158,0
227,0.2121421,0.2158,-0.01978234
229,0.2121421,0.2158,-0.01978234
231,0.2121421,0.2158,-0.01978234
233,0.2139789,0.2185032,-0.01978234
236,0.2139789,0.2185032,-0.01978234
238,0.2167048,0.220287,-0.01978234
240,0.2167048,0.220287,-0.01978234
242,0.2167048,0.2220564,-0.01978234
245,0.2167048,0.2220564,-0.01978234
247,0.2193969,0.2246844,-0.01978234
249,0.2036718,0.2093567,-0.01978234
251,0.2036718,0.2093567,-0.01978234
254,0.1897456,0.1958353,-0.01978234
257,0.1897456,0.1958353,-0.01978234
259,0.2601963,0.2668786,-0.03426402
261,0.2601963,0.2668786,-0.03426402
264,0.3183671,0.3262592,-0.04423466
266,0.3183671,0.3262592,-0.04423466
268,0.3716771,0.3800071,-0.05233916
270,0.3753442,0.3830841,-0.05233916
273,0.3753442,0.3830841,-0.05233916
275,0.3789758,0.3871488,-0.05595291
277,0.3789758,0.3871488,-0.05595291
279,0.365305,0.373777,-0.05233916
282,0.365305,0.373777,-0.05233916
284,0.354982,0.3626169,-0.04845664
286,0.3232465,0.3316129,-0.03956468
288,0.3232465,0.3316129,-0.03956468
291,0.3083766,0.315899,-0.03956468
293,0.3083766,0.315899,-0.03956468
295,0.2967354,0.3045456,-0.03956468
297,0.2967354,0.3045456,-0.03956468
300,0.2873554,0.2954137,-0.03426402
303,0.2873554,0.2954137,-0.03426402
305,0.2705197,0.276953,-0.02797646
307,0.2438933,0.25101,-0.02797646
309,0.2438933,0.25101,-0.02797646
312,0.2220564,0.2289973,-0.02797646
314,0.2220564,0.2289973,-0.02797646
316,0.2046302,0.2112177,-0.02797646
318,0.2046302,0.2112177,-0.02797646
321,0.1928145,0.1978235,-0.01978234
323,0.1928145,0.1978235,-0.01978234
325,0.1928145,0.1968319,-0.01978234
327,0.191797,0.1968319,-0.01978234
330,0.191797,0.1968319,-0.01978234
332,0.1907741,0.1958353,-0.01978234
334,0.1907741,0.1958353,-0.01978234
336,0.1582588,0.1631294,0
339,0.1582588,0.1631294,0
342,0.14537,0.1506579,-0.01978234
344,0.14537,0.1493534,-0.01978234
346,0.14537,0.1493534,-0.01978234
349,0.1440177,0.1493534,-0.01978234
351,0.1440177,0.1493534,-0.01978234
353,0.1506579,0.1545051,0
355,0.1506579,0.1545051,0
357,0.1519511,0.1545051,-0.01978234
360,0.1519511,0.1545051,-0.01978234
362,0.1532334,0.1570175,0
364,0.1557664,0.1582588,-0.01978234
366,0.1557664,0.1582588,-0.01978234
369,0.1545051,0.1570175,-0.01978234
371,0.1545051,0.1570175,-0.01978234
373,0.1532334,0.1557664,0
375,0.1532334,0.1557664,0
378,0.1519511,0.1545051,-0.01978234
380,0.1519511,0.1545051,-0.01978234
382,0.1519511,0.1532334,-0.01978234
385,0.1467098,0.1506579,-0.01978234
388,0.1467098,0.1506579,-0.01978234
390,0.1467098,0.1493534,-0.02797646
392,0.1467098,0.1493534,-0.02797646
394,0.1297215,0.1341704,-0.02797646
397,0.1297215,0.1341704,-0.02797646
399,0.1101434,0.1153499,-0.01978234
401,0.1065312,0.1119058,-0.01978234
403,0.1065312,0.1119058,-0.01978234
406,0.1046783,0.1083524,-0.01978234
408,0.1046783,0.1083524,-0.01978234
410,0.08846933,0.09278741,-0.01978234
412,0.08846933,0.09278741,-0.01978234
415,0.0656106,0.07132626,-0.01978234
417,0.0656106,0.07132626,-0.01978234
419,0.05233916,0.05595291,-0.01978234
421,0.03426402,0.04423466,-0.01978234
423,0.03426402,0.04423466,-0.01978234
427,0.03426402,0.03956468,0
429,0.03426402,0.03956468,0
431,0.02797646,0.03426402,-0.01978234
433,0.02797646,0.03426402,-0.01978234
436,0.01978234,0.01978234,0
438,0.02797646,-0.02797646,-0.01978234
440,0.02797646,-0.02797646,-0.01978234
442,0.03426402,-0.02797646,0
445,0.03426402,-0.02797646,0
447,0.04845664,-0.04423466,0
449,0.04845664,-0.04423466,0
451,0.0656106,-0.05595291,0
454,0.0656106,-0.05595291,0
456,0.07132626,-0.0656106,0
458,0.07912937,-0.07401875,0
460,0.07912937,-0.07401875,0
463,0.08846933,-0.08392937,0
465,0.08846933,-0.08392937,0
467,0.1046783,-0.09891172,0
470,0.1046783,-0.09891172,0
473,0.1136409,-0.1065312,0
475,0.1136409,-0.1065312,0
477,0.1008706,-0.09487279,0
479,0.08846933,-0.08622923,0
482,0.08846933,-0.08622923,0
484,0.06852804,-0.06255726,0
486,0.06852804,-0.06255726,0
488,0.05934703,-0.05233916,0
490,0.05934703,-0.05233916,0
493,0.05595291,-0.05233916,0
495,0.05233916,-0.04845664,0
497,0.05233916,-0.04845664,0
499,0.05233916,-0.04423466,0
502,0.05233916,-0.04423466,0
504,0.02797646,-0.02797646,0
506,0.02797646,-0.02797646,0
508,0.02797646,-0.02797646,0
512,0.02797646,-0.02797646,0
514,0.02797646,-0.01978234,0
516,0.02797646,-0.01978234,0
518,0.02797646,-0.01978234,0
521,0.02797646,0.02797646,0
523,0.02797646,0.02797646,0
525,0.03426402,0.03956468,0
527,0.03426402,0.03956468,0
530,0.04423466,0.04845664,0
532,0.04423466,0.04845664,0
534,0.05233916,0.05934703,0
536,0.06255726,0.07132626,0
539,0.06255726,0.07132626,0
541,0.06852804,0.07401875,0
543,0.06852804,0.07401875,0
545,0.07661668,0.08156469,-0.01978234
548,0.07661668,0.08156469,-0.01978234
550,0.08622923,0.09487279,-0.01978234
552,0.09278741,0.09891172,-0.01978234
555,0.09278741,0.09891172,-0.01978234
557,0.09691329,0.1046783,-0.02797646
560,0.09691329,0.1046783,-0.02797646
562,0.1008706,0.1083524,-0.01978234
564,0.1008706,0.1083524,-0.01978234
566,0.1083524,0.1153499,-0.02797646
569,0.1083524,0.1153499,-0.02797646
571,0.1083524,0.1153499,-0.02797646
573,0.1083524,0.1153499,-0.02797646
575,0.1083524,0.1153499,-0.02797646
578,0.1119058,0.1186941,-0.02797646
580,0.1119058,0.1186941,-0.02797646
582,0.1153499,0.1203313,-0.02797646
584,0.1153499,0.1203313,-0.02797646
587,0.1170339,0.1235407,-0.02797646
589,0.1170339,0.1235407,-0.02797646
591,0.1203313,0.1282043,-0.02797646
593,0.1235407,0.1312212,-0.03426402
596,0.1235407,0.1312212,-0.03426402
599,0.1251145,0.132704,-0.02797646
601,0.1251145,0.132704,-0.02797646
603,0.1297215,0.1356209,-0.03426402
606,0.1297215,0.1356209,-0.03426402
608,0.1312212,0.1370561,-0.03426402
610,0.1823843,0.1887116,-0.03956468
612,0.1823843,0.1887116,-0.03956468
615,0.2631872,0.2697954,-0.05934703
617,0.2631872,0.2697954,-0.05934703
619,0.261696,0.2676108,-0.05934703
621,0.261696,0.2676108,-0.05934703
623,0.2609472,0.2676108,-0.05934703
626,0.2609472,0.2676108,-0.05934703
628,0.2438933,0.2502292,-0.05595291
630,0.2193969,0.2255535,-0.05233916
632,0.2193969,0.2255535,-0.05233916
635,0.2046302,0.2102893,-0.04845664
637,0.2046302,0.2102893,-0.04845664
640,0.1928145,0.1988102,-0.04423466
642,0.1928145,0.1988102,-0.04423466
645,0.1780411,0.1855749,-0.04423466
647,0.1570175,0.1643245,-0.03956468
649,0.1570175,0.1643245,-0.03956468
651,0.1493534,0.1557664,-0.03956468
654,0.1493534,0.1557664,-0.03956468
656,0.1412742,0.1493534,-0.03956468
658,0.1412742,0.1493534,-0.03956468
660,0.1341704,0.1398823,-0.03956468
663,0.1341704,0.1398823,-0.03956468
665,0.1219466,0.1297215,-0.03426402
667,0.1170339,0.1235407,-0.03426402
669,0.1170339,0.1235407,-0.03426402
672,0.1119058,0.1186941,-0.03426402
674,0.1119058,0.1186941,-0.03426402
676,0.1046783,0.1136409,-0.03426402
678,0.1046783,0.1136409,-0.03426402
681,0.1046783,0.1101434,-0.02797646
684,0.1046783,0.1101434,-0.02797646
686,0.1027921,0.1101434,-0.02797646
688,0.1008706,0.1101434,-0.02797646
690,0.1008706,0.1101434,-0.02797646
693,0.09691329,0.1065312,-0.02797646
695,0.09691329,0.1065312,-0.02797646
697,0.09487279,0.1046783,-0.02797646
699,0.09487279,0.1046783,-0.02797646
702,0.09278741,0.1027921,-0.01978234
704,0.09691329,0.1027921,-0.01978234
706,0.09691329,0.1027921,-0.01978234
708,0.09278741,0.1008706,-0.01978234
711,0.09278741,0.1008706,-0.01978234
713,0.09278741,0.09691329,-0.01978234
715,0.09278741,0.09691329,-0.01978234
717,0.08846933,0.09487279,-0.01978234
720,0.08846933,0.09487279,-0.01978234
722,0.08392937,0.09278741,-0.01978234
724,0.08622923,0.09278741,-0.01978234
727,0.08622923,0.09278741,-0.01978234
730,0.08622923,0.09278741,-0.02797646
732,0.08622923,0.09278741,-0.02797646
734,0.08156469,0.08846933,-0.01978234
736,0.08156469,0.08846933,-0.01978234
739,0.08392937,0.09278741,-0.01978234
741,0.08392937,0.09278741,-0.01978234
743,0.08392937,0.09278741,0
745,0.08392937,0.08846933,-0.02797646
748,0.08392937,0.08846933,-0.02797646
750,0.08392937,0.09065409,-0.01978234
752,0.08392937,0.09065409,-0.01978234
754,0.08156469,0.09065409,-0.01978234
756,0.08156469,0.09065409,-0.01978234
759,0.07912937,0.08392937,-0.02797646
761,0.07912937,0.08392937,-0.02797646
763,0.07912937,0.08392937,-0.02797646
765,0.07912937,0.08392937,-0.02797646
769,0.07912937,0.08392937,-0.02797646
771,0.08156469,0.08392937,-0.02797646
773,0.08156469,0.08392937,-0.02797646
775,0.08156469,0.08846933,-0.01978234
778,0.08156469,0.08846933,-0.01978234
780,0.07401875,0.08156469,-0.02797646
782,0.07912937,0.08392937,-0.03426402
784,0.07912937,0.08392937,-0.03426402
787,0.07912937,0.08156469,-0.02797646
789,0.07912937,0.08156469,-0.02797646
791,0.07912937,0.08392937,-0.02797646
793,0.07912937,0.08392937,-0.02797646
796,0.07132626,0.07401875,-0.02797646
798,0.07132626,0.07401875,-0.02797646
800,0.0656106,0.07132626,-0.03426402
802,0.0656106,0.06852804,-0.03426402
805,0.0656106,0.06852804,-0.03426402
807,0.06255726,0.07132626,-0.02797646
809,0.06255726,0.07132626,-0.02797646
812,0.05233916,0.0656106,-0.02797646
814,0.05233916,0.0656106,-0.02797646
817,0.05595291,0.05934703,-0.02797646
819,0.05595291,0.05934703,-0.02797646
821,0.05595291,0.05934703,-0.02797646
823,0.05595291,0.05934703,-0.02797646
826,0.05595291,0.05934703,-0.02797646
828,0.05233916,0.06255726,-0.03426402
830,0.05233916,0.06255726,-0.03426402
832,0.05233916,0.05934703,-0.03426402
835,0.05233916,0.05934703,-0.03426402
837,0.04423466,0.05233916,-0.02797646
839,0.03956468,0.04845664,-0.02797646
841,0.03956468,0.04845664,-0.02797646
844,0.03426402,0.03426402,-0.02797646
846,0.03426402,0.03426402,-0.02797646
848,0.02797646,0.03426402,-0.02797646
850,0.02797646,0.03426402,-0.02797646
854,0.03426402,0.03426402,-0.02797646
856,0.03426402,0.03426402,-0.02797646
858,0.02797646,0.03956468,-0.02797646
860,0.04423466,0.05233916,-0.01978234
863,0.04423466,0.05233916,-0.01978234
865,0.05233916,0.05233916,-0.01978234
867,0.05233916,0.05233916,-0.01978234
869,0.05595291,0.05595291,-0.01978234
872,0.05595291,0.05595291,-0.01978234
874,0.05595291,0.0656106,-0.02797646
876,0.06255726,0.0656106,-0.01978234
878,0.06255726,0.0656106,-0.01978234
880,0.07132626,0.07912937,-0.01978234
883,0.07132626,0.07912937,-0.01978234
885,0.07661668,0.08156469,0
887,0.07661668,0.08156469,0
889,0.07912937,0.08392937,-0.01978234
892,0.07912937,0.08392937,-0.01978234
894,0.08156469,0.08846933,-0.01978234
897,0.08622923,0.08846933,-0.01978234
899,0.08622923,0.08846933,-0.01978234
902,0.08622923,0.08846933,0
904,0.08622923,0.08846933,0
906,0.08392937,0.09065409,-0.01978234
908,0.08392937,0.09065409,-0.01978234
911,0.08392937,0.09065409,0
913,0.08392937,0.08846933,-0.01978234
915,0.08392937,0.08846933,-0.01978234
917,0.08156469,0.08846933,-0.01978234
920,0.08156469,0.08846933,-0.01978234
922,0.08156469,0.08622923,-0.02797646
924,0.08156469,0.08622923,-0.02797646
926,0.07912937,0.08392937,-0.02797646
929,0.07912937,0.08392937,-0.02797646
931,0.07912937,0.08392937,-0.01978234
933,0.07661668,0.08622923,-0.02797646
935,0.07661668,0.08622923,-0.02797646
939,0.07661668,0.08392937,-0.02797646
941,0.07661668,0.08392937,-0.02797646
943,0.07661668,0.08392937,-0.02797646
945,0.07661668,0.08392937,-0.02797646
947,0.07132626,0.07912937,-0.03426402
950,0.07132626,0.07912937,-0.03426402
952,0.07132626,0.08156469,-0.01978234
954,0.07132626,0.07912937,-0.03426402
956,0.07132626,0.07912937,-0.03426402
959,0.06852804,0.07661668,-0.03426402
961,0.06852804,0.07661668,-0.03426402
963,0.0656106,0.07401875,-0.03426402
965,0.0656106,0.07401875,-0.03426402
968,0.0656106,0.07661668,-0.02797646
970,0.06255726,0.07661668,-0.03426402
972,0.06255726,0.07661668,-0.03426402
974,0.06255726,0.07132626,-0.03426402
977,0.06255726,0.07132626,-0.03426402
979,0.05934703,0.07132626,-0.02797646
982,0.05934703,0.07132626,-0.02797646
984,0.05934703,0.07132626,-0.03426402
987,0.05934703,0.07132626,-0.03426402
989,0.05595291,0.06852804,-0.02797646
991,0.05233916,0.06852804,-0.02797646
993,0.05233916,0.06852804,-0.02797646
996,0.05233916,0.06852804,-0.02797646
998,0.05233916,0.06852804,-0.02797646
1000,0.05934703,0.0656106,-0.02797646
1002,0.05934703,0.0656106,-0.02797646
1005,0.05934703,0.07132626,-0.03426402
1007,0.05934703,0.06852804,-0.02797646
1009,0.05934703,0.06852804,-0.02797646
1012,0.05595291,0.07132626,-0.03426402
1014,0.05595291,0.07132626,-0.03426402
1016,0.05934703,0.07401875,-0.03426402
1019,0.05934703,0.07401875,-0.03426402
1021,0.05934703,0.07132626,-0.02797646
1024,0.06255726,0.07401875,-0.02797646
1027,0.06255726,0.07401875,-0.02797646
1029,0.05934703,0.07661668,-0.03426402
1031,0.05934703,0.07661668,-0.03426402
1034,0.0656106,0.07661668,-0.03426402
1036,0.0656106,0.07661668,-0.03956468
1038,0.0656106,0.07661668,-0.03956468
1041,0.06255726,0.07661668,-0.03426402
1043,0.06255726,0.07661668,-0.03426402
1045,0.0656106,0.08156469,-0.03426402
1048,0.0656106,0.08156469,-0.03426402
1050,0.0656106,0.07661668,-0.03426402
1052,0.0656106,0.07661668,-0.03426402
1054,0.0656106,0.07661668,-0.03426402
1057,0.05595291,0.07401875,-0.02797646
1059,0.05595291,0.07401875,-0.02797646
1061,0.05934703,0.07401875,-0.02797646
1064,0.05595291,0.07132626,-0.03956468
1067,0.05595291,0.07132626,-0.03956468
1069,0.05233916,0.07132626,-0.03426402
1072,0.05233916,0.07132626,-0.03426402
1074,0.05233916,0.0656106,-0.02797646
1076,0.05233916,0.0656106,-0.02797646
1079,0.04845664,0.0656106,-0.03426402
1081,0.04423466,0.0656106,-0.03426402
1083,0.04423466,0.0656106,-0.03426402
1086,0.04423466,0.06255726,-0.03426402
1088,0.04423466,0.06255726,-0.03426402
1090,0.04423466,0.05233916,-0.02797646
1093,0.04423466,0.05233916,-0.02797646
1095,0.03956468,0.04845664,-0.02797646
1097,0.03426402,0.05233916,-0.03426402
1100,0.03426402,0.05233916,-0.03426402
1102,0.02797646,0.04845664,-0.03426402
1104,0.02797646,0.04845664,-0.03426402
1107,0.02797646,0.04423466,-0.03426402
1110,0.02797646,0.04423466,-0.03426402
1112,0.02797646,0.04423466,-0.03426402
1115,0.02797646,0.03956468,-0.03426402
1117,0.02797646,0.03956468,-0.03426402
1119,0.03426402,0.03956468,-0.03956468
1122,0.03426402,0.03956468,-0.03956468
1124,0.02797646,0.03426402,-0.03956468
1126,0.02797646,0.03426402,-0.03426402
1129,0.02797646,0.03426402,-0.03426402
1131,0.02797646,0.03426402,-0.03426402
1133,0.02797646,0.03426402,-0.03426402
1136,0.02797646,0.03426402,-0.03426402
1138,0,0.02797646,-0.03426402
1140,0,0.02797646,-0.03426402
1142,0,0.02797646,-0.02797646
1145,0,0.02797646,-0.02797646
1147,0.01978234,-0.02797646,-0.02797646
1149,0.01978234,-0.02797646,-0.02797646
1153,0.04423466,-0.04423466,-0.02797646
1155,0.05934703,-0.05934703,-0.02797646
1157,0.05934703,-0.05934703,-0.02797646
1160,0.05595291,-0.05595291,-0.02797646
1162,0.05595291,-0.05595291,-0.02797646
1164,0.05233916,-0.05595291,-0.01978234
1167,0.04423466,-0.04845664,-0.02797646
1169,0.04423466,-0.04845664,-0.02797646
1171,0.03956468,-0.04423466,-0.02797646
1174,0.03956468,-0.04423466,-0.02797646
1176,0.03426402,-0.03426402,-0.02797646
1178,0.03426402,-0.03426402,-0.02797646
1181,0.02797646,-0.03426402,-0.02797646
1183,0.01978234,-0.03426402,-0.03426402
1185,0.01978234,-0.03426402,-0.03426402
1188,0,-0.01978234,-0.03426402
1190,0,-0.01978234,-0.03426402
1192,0,-0.01978234,-0.03426402
1196,0,-0.01978234,-0.03426402
1198,0,-0.01978234,-0.03426402
1200,0,0.02797646,-0.03426402
1203,0,0.02797646,-0.03426402
1205,0,0.02797646,-0.03956468
1207,0,0.02797646,-0.03956468
1210,0,0.02797646,-0.03426402
1212,0,0.02797646,-0.04423466
1214,0,0.02797646,-0.04423466
1217,0,0.02797646,-0.03956468
1219,0,0.02797646,-0.03956468
1221,0,0.02797646,-0.03426402
1224,0,0.02797646,-0.03426402
1226,0,0.03426402,-0.03426402
1228,0,0.01978234,-0.03956468
1230,0,0.01978234,-0.03956468
1233,0,0.02797646,-0.03426402
1235,0,0.02797646,-0.03426402
1238,0.01978234,-0.02797646,-0.03426402
1241,0.01978234,-0.03426402,-0.03426402
1243,0.01978234,-0.03426402,-0.03426402
1245,0.02797646,-0.03956468,-0.03426402
1248,0.02797646,-0.03956468,-0.03426402
1250,0.02797646,-0.03426402,-0.03426402
1252,0.02797646,-0.03426402,-0.03426402
1255,0.01978234,-0.03956468,-0.02797646
1257,0.01978234,-0.03426402,-0.02797646
1259,0.01978234,-0.03426402,-0.02797646
1262,0.01978234,-0.02797646,-0.02797646
1264,0.01978234,-0.02797646,-0.02797646
1266,0,-0.03426402,-0.02797646
1269,0,-0.03426402,-0.02797646
1271,0,-0.02797646,-0.03426402
1273,0,-0.02797646,-0.03426402
1276,0,0.02797646,-0.03426402
1278,0,0.02797646,-0.03426402
1281,0,0.02797646,-0.03426402
1284,0,0.02797646,-0.02797646
1286,0,0.03956468,-0.03426402
1288,0,0.03956468,-0.03426402
1291,0.02797646,0.03956468,-0.02797646
1293,0.02797646,0.03956468,-0.02797646
1295,0,0.03956468,-0.02797646
1298,0,0.03956468,-0.02797646
1300,0.02797646,0.04423466,-0.03426402
1302,0.01978234,0.03956468,-0.02797646
1305,0.01978234,0.03956468,-0.02797646
1307,0.03426402,0.04423466,-0.02797646
1309,0.03426402,0.04423466,-0.02797646
1312,0.03426402,0.04845664,-0.02797646
1314,0.03426402,0.04845664,-0.02797646
1316,0.03426402,0.04845664,-0.02797646
1318,0.03426402,0.05233916,-0.02797646
1321,0.03426402,0.05233916,-0.02797646
1324,0.03956468,0.05934703,-0.02797646
1326,0.03956468,0.05934703,-0.02797646
1329,0.04423466,0.05595291,-0.02797646
1331,0.04423466,0.05595291,-0.02797646
1333,0.04423466,0.05595291,-0.02797646
1336,0.04845664,0.05934703,-0.02797646
1338,0.04845664,0.05934703,-0.02797646
1340,0.04845664,0.05934703,-0.02797646
1343,0.05233916,0.06255726,-0.02797646
1345,0.05233916,0.06255726,-0.02797646
1347,0.05233916,0.0656106,-0.02797646
1350,0.05233916,0.0656106,-0.02797646
1352,0.05595291,0.07401875,-0.03426402
1354,0.05595291,0.07401875,-0.03426402
1357,0.06255726,0.07401875,-0.03426402
1359,0.05934703,0.07661668,-0.03956468
1361,0.05934703,0.07661668,-0.03956468
1364,0.06255726,0.07661668,-0.03426402
1367,0.06255726,0.07661668,-0.03426402
1369,0.06255726,0.07661668,-0.03426402
1372,0.06255726,0.07661668,-0.03426402
1374,0.05934703,0.07132626,-0.03426402
1376,0.06255726,0.07661668,-0.03956468
1379,0.06255726,0.07661668,-0.03956468
1381,0.05934703,0.07661668,-0.03956468
1383,0.05934703,0.07661668,-0.03956468
1386,0.05934703,0.07661668,-0.03426402
1388,0.0656106,0.07661668,-0.03956468
1390,0.0656106,0.07661668,-0.03956468
1393,0.06255726,0.07401875,-0.03956468
1395,0.06255726,0.07401875,-0.03956468
1397,0.0656106,0.07401875,-0.04423466
1400,0.0656106,0.07401875,-0.04423466
1402,0.05934703,0.07132626,-0.04423466
1404,0.05595291,0.07132626,-0.03956468
1406,0.05595291,0.07132626,-0.03956468
1410,0.05595291,0.06852804,-0.03956468
1412,0.05595291,0.06852804,-0.03956468
1414,0.05934703,0.06852804,-0.04423466
1417,0.05595291,0.0656106,-0.03956468
1419,0.05595291,0.0656106,-0.03956468
1421,0.05233916,0.06255726,-0.03956468
1424,0.05233916,0.06255726,-0.03956468
1426,0.04845664,0.06255726,-0.03956468
1428,0.04845664,0.06255726,-0.03956468
1431,0.03956468,0.05233916,-0.03956468
1433,0.03426402,0.05233916,-0.03426402
1435,0.03426402,0.05233916,-0.03426402
1438,0.03426402,0.04845664,-0.03956468
1440,0.03426402,0.04845664,-0.03956468
1442,0.02797646,0.05233916,-0.03426402
1445,0.02797646,0.04845664,-0.03956468
1447,0.02797646,0.04845664,-0.03956468
1449,0,0.04845664,-0.03426402
1453,0,0.04845664,-0.03426402
1455,0,0.03956468,-0.03426402
1457,0,0.03956468,-0.03426402
1460,0,0.03956468,-0.03426402
1462,0,0.04423466,-0.03426402
1464,0,0.04423466,-0.03426402
1467,0,0.04423466,-0.03426402
1469,0,0.04423466,-0.03426402
1471,0,0.04423466,-0.02797646
1474,0,0.04423466,-0.02797646
1476,0,0.03956468,-0.02797646
1478,0,0.03956468,-0.02797646
1481,0,0.03956468,-0.02797646
1483,0,0.03426402,-0.02797646
1485,0,0.03426402,-0.02797646
1488,0,0.03426402,-0.01978234
1490,0,0.01978234,-0.01978234
1492,0,0.01978234,-0.01978234
1495,0,0.02797646,-0.02797646
1498,0,0.02797646,-0.02797646
1500,0,0.02797646,0
1502,0,0.02797646,0
1505,0,0.03426402,-0.01978234
1507,0,0.02797646,0
1509,0,0.02797646,0
1512,0.02797646,0.02797646,-0.01978234
1514,0.02797646,0.02797646,-0.01978234
1516,0.02797646,0.02797646,-0.01978234
1519,0.02797646,0.02797646,-0.01978234
1521,0.02797646,0.02797646,-0.01978234
1523,0,0.03426402,-0.01978234
1526,0,0.03426402,-0.01978234
1528,0,0.03426402,-0.01978234
1530,0,0.03426402,-0.01978234
1533,0,0.03426402,-0.01978234
1536,0,0.03426402,-0.01978234
1538,0,0.03426402,-0.01978234
1541,0,0.02797646,0
1543,0,0.02797646,0
1545,0,0.02797646,0
1548,0,0.02797646,0
1550,0,0.02797646,0
1552,0.02797646,0.02797646,-0.01978234
1555,0.02797646,0.02797646,-0.01978234
1557,0,0.02797646,-0.01978234
1559,0,0.02797646,-0.01978234
1562,0,0.02797646,-0.01978234
1564,0,0.03426402,-0.01978234
1566,0,0.03426402,-0.01978234
1569,0,0.03426402,-0.01978234
1571,0,0.03426402,-0.01978234
1573,0.02797646,0.03426402,-0.02797646
1575,0.02797646,0.03426402,-0.02797646
1579,0,0.03426402,-0.01978234
1581,0,0.03956468,-0.01978234
1583,0,0.03956468,-0.01978234
1586,0,0.03426402,-0.02797646
1588,0,0.03426402,-0.02797646
1590,0,0.03426402,-0.02797646
1593,0,0.03956468,-0.02797646
1595,0,0.03956468,-0.02797646
1597,0.02797646,0.03956468,-0.02797646
1600,0.02797646,0.03956468,-0.02797646
1602,0,0.03956468,-0.01978234
1604,0,0.03956468,-0.01978234
1607,0.02797646,0.03956468,-0.02797646
1609,0,0.03426402,-0.01978234
1611,0,0.03426402,-0.01978234
1614,0,0.02797646,-0.01978234
1616,0,0.02797646,-0.01978234
1618,0.02797646,0.03956468,-0.02797646
1622,0,0.03956468,-0.01978234
1624,0,0.03956468,-0.01978234
1626,0.02797646,0.03426402,-0.02797646
1629,0.02797646,0.03426402,-0.02797646
1631,0.02797646,0.03426402,-0.02797646
1633,0.02797646,0.03426402,-0.02797646
1636,0.02797646,0.03956468,-0.02797646
1638,0.02797646,0.03956468,-0.01978234
1640,0.02797646,0.03956468,-0.01978234
1643,0.01978234,0.04423466,-0.01978234
1645,0.01978234,0.04423466,-0.01978234
1647,0.02797646,0.04423466,-0.01978234
1650,0.02797646,0.04423466,-0.01978234
1652,0.02797646,0.04423466,-0.01978234
1654,0.02797646,0.04845664,-0.01978234
1657,0.02797646,0.04845664,-0.01978234
1659,0.03426402,0.04845664,0
1661,0.03426402,0.04845664,0
1664,0.03956468,0.05595291,-0.01978234
1667,0.04423466,0.05934703,0
1669,0.04423466,0.05934703,0
1671,0.05595291,0.05934703,-0.01978234
1674,0.05595291,0.05934703,-0.01978234
1676,0.05595291,0.0656106,0
1678,0.05595291,0.0656106,0
1681,0.05595291,0.0656106,-0.01978234
1683,0.05595291,0.06852804,0
1685,0.05595291,0.06852804,0
1688,0.05595291,0.06852804,0
1690,0.05595291,0.06852804,0
1692,0.05934703,0.06852804,-0.01978234
1695,0.06255726,0.06852804,-0.01978234
1697,0.06255726,0.06852804,-0.01978234
1699,0.05934703,0.06852804,-0.01978234
1702,0.05934703,0.06852804,-0.01978234
1704,0.05934703,0.06852804,-0.01978234
1707,0.05934703,0.06852804,-0.01978234
1710,0.06255726,0.06852804,-0.01978234
1712,0.05595291,0.07132626,0
1714,0.05595291,0.07132626,0
1717,0.05233916,0.07132626,0
1719,0.05233916,0.07132626,0
1721,0.05934703,0.06852804,-0.02797646
1724,0.05934703,0.06852804,-0.02797646
1726,0.05595291,0.0656106,-0.01978234
1728,0.05233916,0.06255726,-0.02797646
1731,0.05233916,0.06255726,-0.02797646
1733,0.04845664,0.06255726,-0.01978234
1735,0.04845664,0.06255726,-0.01978234
1738,0.04423466,0.05934703,-0.01978234
1740,0.03956468,0.05595291,-0.01978234
1742,0.03956468,0.05595291,-0.02797646
1745,0.03426402,0.05233916,-0.01978234
1747,0.03426402,0.05233916,-0.01978234
1750,0.03426402,0.04423466,-0.02797646
1752,0.03426402,0.04423466,-0.02797646
1755,0.01978234,0.04845664,-0.02797646
1757,0.01978234,0.03426402,-0.02797646
1759,0.01978234,0.03426402,-0.02797646
1762,0,0.02797646,-0.02797646
1764,0,0.02797646,-0.02797646
1766,0,0.02797646,-0.02797646
1769,0,0.02797646,-0.02797646
1771,0,0.02797646,-0.02797646
1773,0,0.03426402,-0.01978234
1776,0,0.03426402,-0.01978234
1778,0,0.02797646,-0.02797646
1780,0,0.02797646,-0.02797646
1783,0,0.01978234,-0.02797646
1785,0,0.02797646,-0.02797646
1787,0,0.02797646,-0.02797646
1790,0,0.02797646,-0.02797646
1793,0,0.02797646,-0.02797646
1795,0,-0.02797646,-0.02797646
1798,0,-0.03426402,-0.01978234
1800,0,-0.03426402,-0.01978234
1802,0,-0.03426402,-0.02797646
1805,0,-0.03426402,-0.02797646
1807,0,-0.01978234,-0.02797646
1809,0,-0.01978234,-0.01978234
1812,0,-0.01978234,-0.01978234
1814,0,-0.01978234,-0.02797646
1816,0,-0.01978234,-0.02797646
1819,0,-0.03426402,-0.01978234
1821,0,-0.03426402,-0.01978234
1823,0.02797646,-0.03426402,-0.02797646
1826,0.02797646,-0.03426402,-0.02797646
1828,0,-0.03956468,0
1830,0,-0.03956468,-0.01978234
1833,0,-0.03956468,-0.01978234
1836,0,-0.03426402,-0.01978234
1838,0,-0.03426402,-0.01978234
1840,0,-0.03426402,0
1843,0,-0.02797646,-0.01978234
1845,0,-0.02797646,-0.01978234
1847,0,-0.03426402,-0.01978234
1850,0,-0.03426402,-0.01978234
1852,0.02797646,-0.02797646,-0.01978234
1854,0.02797646,-0.02797646,-0.01978234
1857,0.02797646,-0.02797646,-0.01978234
1859,0,-0.03956468,0
1861,0.02797646,-0.03956468,-0.01978234
1864,0.02797646,-0.02797646,-0.01978234
1866,0.02797646,-0.02797646,-0.01978234
1868,0.02797646,-0.02797646,-0.01978234
1871,0,-0.03426402,0
1873,0,-0.03426402,0
1875,0,-0.03426402,-0.01978234
1879,0,-0.03426402,-0.01978234
1881,0,-0.03426402,-0.01978234
1883,0,-0.03426402,-0.01978234
1886,0,-0.02797646,-0.01978234
1888,0,-0.03956468,-0.01978234
1890,0,-0.03956468,-0.01978234
1893,0,-0.03956468,-0.01978234
1895,0,-0.03956468,-0.01978234
1897,0,-0.02797646,0
1900,0,-0.03956468,-0.01978234
1902,0,0.03956468,0
1904,0,0.03956468,-0.01978234
1907,0,0.03956468,-0.01978234
1909,0,0.02797646,-0.01978234
1911,0,0.02797646,-0.01978234
1914,0,0.02797646,-0.01978234
1916,0,0.02797646,-0.01978234
1918,0,0.02797646,-0.01978234
1922,0,0.02797646,-0.01978234
1924,0,0.02797646,-0.01978234
1926,0,0.02797646,-0.02797646
1928,0,0.02797646,-0.02797646
1931,0,0.02797646,-0.02797646
1933,0,0.02797646,-0.01978234
1935,0,0.02797646,-0.01978234
1938,0,0.02797646,-0.01978234
1940,0,0.02797646,-0.01978234
1942,0,0.02797646,0
1945,0,0.03426402,-0.01978234
1947,0,0.03426402,-0.01978234
1949,0,0.03426402,-0.01978234
1952,0,0.03426402,-0.01978234
1954,0,0.03426402,0
1956,0,0.03426402,0
1959,0,0.03426402,0
1961,0,0.02797646,0
1964,0,0.02797646,0
1967,0,0.02797646,-0.01978234
1969,0,0.02797646,-0.01978234
1971,0,0.02797646,-0.01978234
1974,0,0.02797646,-0.01978234
1976,0,0.02797646,-0.01978234
1978,0,0.02797646,-0.02797646
1981,0,0.02797646,-0.02797646
1983,0,0,-0.02797646
1985,0,0,-0.02797646
1988,0,0,-0.02797646
1990,0,0.02797646,-0.02797646
1992,0,0.02797646,-0.02797646
1995,0,0.02797646,-0.01978234
1997,0,0.02797646,-0.01978234
1999,0,0.02797646,-0.02797646
2002,0,0.02797646,-0.02797646
2004,0,0,-0.02797646
2007,0,0.02797646,-0.01978234
2010,0,0.02797646,-0.01978234
2012,0,0.01978234,-0.01978234
2014,0,0.01978234,-0.01978234
2016,0,0.02797646,-0.01978234
2019,0,0.01978234,-0.01978234
2021,0,0.01978234,-0.01978234
2023,0,0.03426402,-0.01978234
2026,0,0.03426402,-0.01978234
2028,0,0.02797646,-0.02797646
2030,0,0.02797646,-0.02797646
2033,0,0.03956468,-0.01978234
2035,0,0.03426402,0
2037,0,0.03426402,0
2040,0.02797646,0.03426402,-0.01978234
2042,0.02797646,0.03426402,-0.01978234
2044,0.02797646,0.03426402,-0.01978234
2048,0.02797646,0.03426402,-0.01978234
2050,0.02797646,0.03426402,-0.01978234
2052,0,0.03956468,-0.01978234
2055,0,0.03956468,-0.01978234
2057,0,0.03426402,-0.01978234
2059,0,0.03426402,-0.01978234
2062,0.02797646,0.03956468,-0.01978234
2064,0.02797646,0.03426402,-0.01978234
2066,0.02797646,0.03426402,-0.01978234
2069,0,0.03426402,-0.01978234
2071,0,0.03426402,-0.01978234
2073,0,0.03956468,-0.01978234
2076,0.01978234,0.03956468,0
2078,0.01978234,0.03956468,0
2080,0.01978234,0.04423466,-0.01978234
2083,0.01978234,0.04423466,-0.01978234
2085,0,0.03956468,-0.01978234
2087,0,0.03956468,-0.01978234
2091,0,0.03956468,0
2093,0.02797646,0.03956468,-0.01978234
2095,0.02797646,0.03956468,-0.01978234
2098,0,0.03956468,0
2100,0,0.03956468,0
2102,0.02797646,0.03426402,0
2104,0.02797646,0.03426402,0
2107,0,0.03956468,0
2109,0,0.03426402,0
2111,0,0.03426402,0
2114,0,0.03426402,0
2116,0,0.03426402,0
2118,0,0.03426402,0
2121,0,0.03956468,0
2123,0,0.03956468,0
2125,0.02797646,0.03956468,0
2128,0.02797646,0.03956468,0
2130,0.02797646,0.03956468,-0.01978234
2132,0.02797646,0.03956468,-0.01978234
2136,0.02797646,0.03426402,-0.02797646
2138,0,0.03426402,0
2140,0,0.03426402,0
2143,0,0.03426402,-0.01978234
2145,0,0.03426402,-0.01978234
2147,0,0.02797646,-0.01978234
2150,0,0.03426402,-0.01978234
2152,0,0.03426402,-0.01978234
2154,0,0.03426402,-0.01978234
2157,0,0.03426402,-0.01978234
2159,0,0.03426402,-0.01978234
2161,0,0.03426402,-0.01978234
2164,0,0.03426402,-0.01978234
2166,0,0.03426402,-0.02797646
2168,0,0.03426402,-0.02797646
2171,0,0.02797646,-0.01978234
2173,0,0.02797646,-0.01978234
2176,0,0.02797646,-0.02797646
2179,0,0.03426402,-0.01978234
2181,0,0.03426402,-0.01978234
2183,0,0.03426402,-0.02797646
2185,0,0.03426402,-0.02797646
2188,0,-0.03426402,-0.01978234
2190,0,-0.03426402,-0.01978234
2192,0,-0.02797646,-0.02797646
2195,0,-0.03426402,-0.01978234
2197,0,-0.03426402,-0.01978234
2199,0,-0.03426402,-0.02797646
2202,0,-0.03426402,-0.02797646
2204,0,-0.03426402,-0.02797646
2206,0,-0.03426402,-0.02797646
2209,0,-0.03426402,-0.02797646
2211,0,-0.03426402,-0.03426402
2213,0,-0.03426402,-0.03426402
2216,0,-0.03426402,-0.01978234
2219,0,-0.03426402,-0.01978234
2221,0,-0.03426402,-0.02797646
2224,0.02797646,-0.02797646,-0.02797646
2226,0.02797646,-0.02797646,-0.02797646
2228,0.02797646,-0.03956468,-0.02797646
2231,0.02797646,-0.03956468,-0.02797646
2233,0,-0.03956468,-0.02797646
2235,0,-0.03956468,-0.02797646
2238,0,-0.03956468,-0.02797646
2240,0,-0.03956468,-0.02797646
2242,0,-0.03956468,-0.02797646
2245,0.02797646,-0.03426402,-0.02797646
2247,0.02797646,-0.03426402,-0.02797646
2249,0.02797646,-0.03426402,-0.01978234
2252,0.02797646,-0.03956468,-0.01978234
2254,0.02797646,-0.03956468,-0.01978234
2256,0.02797646,-0.04423466,-0.01978234
2259,0.02797646,-0.04423466,-0.01978234
2262,0.03426402,-0.03426402,-0.02797646
2264,0.03426402,-0.03426402,-0.02797646
2267,0.01978234,-0.03956468,-0.01978234
2269,0.02797646,-0.03956468,-0.01978234
2271,0.02797646,-0.03956468,-0.01978234
2273,0.02797646,-0.03956468,-0.01978234
2276,0.02797646,-0.03956468,-0.01978234
2278,0.03426402,-0.03956468,-0.01978234
2280,0.03426402,-0.03956468,-0.01978234
2283,0.03426402,-0.03956468,-0.01978234
2285,0.03426402,-0.03956468,0
2287,0.03426402,-0.03956468,0
2290,0.03426402,-0.03956468,-0.01978234
2292,0.03426402,-0.03956468,-0.01978234
2294,0.02797646,-0.03956468,-0.01978234
2297,0.03426402,-0.03956468,-0.01978234
2299,0.03426402,-0.03956468,-0.01978234
2301,0.03426402,-0.04423466,-0.01978234
2305,0.03426402,-0.04423466,-0.01978234
2307,0.03426402,-0.03426402,-0.01978234
2309,0.03426402,-0.03426402,-0.01978234
2312,0.02797646,-0.03956468,0
2314,0.03426402,-0.03956468,0
2316,0.03426402,-0.03956468,0
2319,0.02797646,-0.03426402,0
2321,0.02797646,-0.03426402,0
2323,0.02797646,-0.03956468,0
2326,0.02797646,-0.03426402,-0.01978234
2328,0.02797646,-0.03426402,-0.01978234
2330,0.02797646,-0.03426402,0
2333,0.02797646,-0.03426402,0
2335,0.02797646,-0.03426402,0
2337,0.02797646,-0.03426402,0
2340,0.02797646,-0.03426402,0
2342,0,-0.03426402,0
2344,0,-0.03426402,0
2348,0.02797646,-0.03426402,-0.01978234
2350,0.02797646,-0.03426402,-0.01978234
2352,0,-0.03426402,-0.01978234
2355,0,-0.03426402,0
2357,0,-0.03426402,0
2359,0,-0.03426402,0
2361,0,-0.03426402,0
2364,0,-0.02797646,0
2366,0,-0.02797646,0
2368,0,-0.02797646,-0.01978234
2371,0,-0.02797646,0
2373,0,-0.02797646,0
2375,0,-0.02797646,0
2378,0,-0.02797646,0
2380,0.02797646,-0.02797646,-0.01978234
2382,0.02797646,-0.02797646,-0.01978234
2385,0,-0.02797646,-0.01978234
2387,0,0.02797646,-0.01978234
2390,0,0.02797646,-0.01978234
2393,0,0.02797646,-0.02797646
2395,0,0.02797646,-0.02797646
2397,0,0.02797646,-0.02797646
2400,0,0.02797646,-0.02797646
2402,0,0.02797646,-0.02797646
2404,0,0.02797646,-0.01978234
2407,0,0.02797646,-0.01978234
2409,0,0.02797646,-0.02797646
2411,0,0.02797646,-0.02797646
2414,0,0.02797646,-0.03426402
2416,0,0.02797646,-0.03426402
2418,0,0.02797646,-0.03426402
2421,0,0.02797646,-0.03426402
2423,0,0.02797646,-0.03426402
2425,0,0.02797646,-0.03426402
2428,0,0.02797646,-0.02797646
2430,0,0.02797646,-0.02797646
2433,0,0,-0.02797646
2436,0,0,-0.02797646
2438,0,0.02797646,-0.02797646
2440,0,0.02797646,-0.02797646
2443,0,0,-0.02797646
2445,0,0,-0.01978234
2447,0,0,-0.01978234
2449,0,0.02797646,-0.02797646
2452,0,0.02797646,-0.02797646
2454,0,0.01978234,-0.01978234
2456,0,0.01978234,-0.01978234
2459,0,0,-0.01978234
2461,0,0.01978234,-0.02797646
2463,0,0.01978234,-0.02797646
2466,0,0.02797646,-0.01978234
2468,0,0.02797646,-0.01978234
2470,0,-0.02797646,-0.01978234
2473,0,-0.02797646,-0.01978234
2476,0,-0.02797646,-0.01978234
2478,0,-0.02797646,-0.01978234
2481,0,-0.02797646,-0.01978234
2483,0,-0.01978234,-0.01978234
2485,0,-0.01978234,-0.01978234
2488,0,-0.03426402,-0.01978234
2490,0,-0.03426402,-0.01978234
2492,0,-0.03426402,-0.01978234
2495,0,-0.03426402,0
2497,0,-0.03426402,0
2499,0,-0.02797646,0
2502,0,-0.03426402,0
2504,0,-0.03426402,0
2506,0.02797646,-0.03956468,-0.01978234
2509,0.02797646,-0.03956468,-0.01978234
2511,0,-0.03426402,0
2513,0,-0.03426402,0
2516,0,-0.03956468,0
2519,0,-0.03956468,0
2521,0,-0.03956468,0
2524,0,-0.03426402,0
2526,0,-0.03426402,0
2528,0,-0.03956468,0
2531,0,-0.03956468,0
2533,0,-0.03956468,0
2535,0.02797646,-0.03426402,-0.01978234
2537,0.02797646,-0.03426402,-0.01978234
2540,0,-0.03426402,0
2542,0,-0.03426402,0
2544,0,-0.03426402,-0.01978234
2547,0.02797646,-0.02797646,0
2549,0.02797646,-0.02797646,0
2551,0.02797646,-0.02797646,-0.01978234
2554,0.02797646,-0.02797646,-0.01978234
2556,0.01978234,-0.02797646,-0.01978234
2558,0.01978234,-0.02797646,-0.01978234
2562,0.02797646,-0.03426402,-0.02797646
2564,0.02797646,-0.03426402,-0.01978234
2566,0.02797646,-0.03426402,-0.01978234
2569,0.02797646,-0.03956468,-0.01978234
2571,0.02797646,-0.03956468,-0.01978234
2573,0.04423466,-0.04845664,-0.02797646
2576,0.04423466,-0.05233916,0
2578,0.04423466,-0.05233916,0
2580,0.04845664,-0.05233916,0
2583,0.04845664,-0.05233916,0
2585,0.06255726,-0.06255726,0
2587,0.06255726,-0.06255726,0
2590,0.0656106,-0.06852804,-0.01978234
2592,0.06852804,-0.06852804,-0.01978234
2594,0.06852804,-0.06852804,-0.01978234
2597,0.07132626,-0.06852804,-0.01978234
2599,0.07132626,-0.06852804,-0.01978234
2601,0.07401875,-0.07661668,-0.01978234
2605,0.08156469,-0.08392937,-0.01978234
2607,0.08156469,-0.08392937,-0.01978234
2609,0.1101434,-0.1083524,0
2612,0.1101434,-0.1083524,0
2614,0.1282043,-0.1282043,0
2616,0.1282043,-0.1282043,0
2619,0.1467098,-0.1440177,0
2621,0.1532334,-0.1506579,0
2623,0.1532334,-0.1506579,0
2625,0.1545051,-0.1519511,0
2628,0.1545051,-0.1519511,0
2630,0.1570175,-0.1545051,0
2632,0.1557664,-0.1532334,0
2635,0.1557664,-0.1532334,0
2637,0.1557664,-0.1532334,0
2639,0.1557664,-0.1532334,0
2642,0.1506579,-0.1493534,0
2644,0.1506579,-0.1493534,0
2647,0.1493534,-0.1467098,0
2650,0.1398823,-0.1370561,0
2652,0.1398823,-0.1370561,0
2654,0.1341704,-0.1312212,0
2657,0.1341704,-0.1312212,0
2659,0.1203313,-0.1186941,0
2661,0.1203313,-0.1186941,0
2664,0.1136409,-0.1119058,-0.01978234
2666,0.1046783,-0.1046783,0
2668,0.1046783,-0.1046783,0
2671,0.09891172,-0.09891172,0
2673,0.09891172,-0.09891172,0
2675,0.08846933,-0.08846933,-0.01978234
2678,0.08392937,-0.08392937,-0.01978234
2680,0.08392937,-0.08392937,-0.01978234
2682,0.07401875,-0.07661668,-0.01978234
2685,0.07401875,-0.07661668,-0.01978234
2688,0.07132626,-0.07132626,-0.01978234
2690,0.07132626,-0.07132626,-0.01978234
2693,0.07132626,-0.07132626,-0.02797646
2695,0.05934703,-0.06255726,-0.01978234
2697,0.05934703,-0.06255726,-0.01978234
2700,0.06255726,-0.06255726,-0.02797646
2702,0.06255726,-0.06255726,-0.02797646
2704,0.05233916,-0.05934703,-0.02797646
2707,0.07132626,-0.07132626,-0.02797646
2709,0.07132626,-0.07132626,-0.02797646
2711,0.08392937,-0.08156469,-0.02797646
2713,0.08392937,-0.08156469,-0.02797646
2716,0.09278741,-0.09278741,-0.01978234
2718,0.09278741,-0.09278741,-0.01978234
2720,0.08846933,-0.08846933,-0.01978234
2723,0.08622923,-0.08622923,-0.01978234
2725,0.08622923,-0.08622923,-0.01978234
2727,0.07912937,-0.07661668,-0.01978234
2731,0.07912937,-0.07661668,-0.01978234
2733,0.06852804,-0.06852804,-0.01978234
2735,0.06852804,-0.06852804,-0.01978234
2738,0.06255726,-0.0656106,-0.01978234
2740,0.05934703,-0.06255726,-0.01978234
2742,0.05934703,-0.06255726,-0.01978234
2745,0.05233916,-0.05595291,-0.02797646
2747,0.05233916,-0.05595291,-0.02797646
2749,0.04845664,-0.05233916,-0.01978234
2752,0.04845664,-0.05233916,-0.01978234
2754,0.04845664,-0.05233916,-0.01978234
2756,0.04845664,-0.05233916,-0.01978234
2759,0.04845664,-0.05233916,-0.01978234
2761,0.03956468,-0.04423466,-0.01978234
2763,0.03956468,-0.04423466,-0.01978234
2766,0.03426402,-0.03956468,0
2768,0.03956468,-0.04423466,-0.01978234
2770,0.03956468,-0.04423466,-0.01978234
2774,0.03426402,-0.04423466,-0.01978234
2776,0.03426402,-0.04423466,-0.01978234
2778,0.03956468,-0.04845664,-0.02797646
2781,0.03956468,-0.04845664,-0.01978234
2783,0.03956468,-0.04845664,-0.01978234
2785,0.03426402,-0.04845664,0
2788,0.03426402,-0.04845664,0
2790,0.03426402,-0.04845664,-0.01978234
2792,0.03426402,-0.04845664,-0.01978234
2794,0.03956468,-0.05233916,-0.01978234
2797,0.04423466,-0.05233916,-0.01978234
2799,0.04423466,-0.05233916,-0.01978234
2801,0.04845664,-0.05595291,-0.01978234
2804,0.04845664,-0.05595291,-0.01978234
2806,0.05233916,-0.05934703,-0.01978234
2808,0.04845664,-0.06255726,0
2811,0.04845664,-0.06255726,0
2813,0.05595291,-0.05934703,-0.01978234
2816,0.05595291,-0.05934703,-0.01978234
2819,0.05233916,-0.0656106,0
2821,0.05233916,-0.0656106,0
2823,0.05595291,-0.0656106,0
2826,0.05595291,-0.0656106,-0.01978234
2828,0.05595291,-0.0656106,-0.01978234
2830,0.04423466,-0.06255726,0
2833,0.04423466,-0.06255726,0
2835,0.04845664,-0.05595291,-0.01978234
2837,0.04845664,-0.05595291,-0.01978234
2840,0.04423466,-0.05595291,-0.01978234
2842,0.03426402,-0.04845664,-0.01978234
2844,0.03426402,-0.04845664,-0.01978234
2847,0.03426402,-0.04845664,0
2849,0.03426402,-0.04845664,0
2851,0.02797646,-0.03956468,-0.01978234
2854,0.02797646,-0.04423466,-0.01978234
2856,0.02797646,-0.04423466,-0.01978234
2859,0.02797646,-0.03956468,-0.01978234
2862,0.02797646,-0.03956468,-0.01978234
2864,0,-0.03426402,-0.02797646
2866,0,-0.03426402,-0.02797646
2869,0.02797646,-0.04423466,-0.02797646
2871,0,-0.04423466,-0.02797646
2873,0,-0.04423466,-0.02797646
2876,0,-0.03426402,-0.02797646
2878,0,-0.03426402,-0.02797646
2880,0,-0.03956468,-0.02797646
2882,0,-0.03426402,-0.01978234
2885,0,-0.03426402,-0.01978234
2887,0,-0.02797646,-0.02797646
2889,0,-0.02797646,-0.02797646
2892,0,-0.02797646,-0.02797646
2894,0,-0.02797646,-0.02797646
2896,0,-0.03956468,-0.02797646
2899,0,-0.03426402,-0.02797646
2902,0,-0.03426402,-0.02797646
2904,0,-0.03426402,-0.02797646
2907,0,-0.03426402,-0.02797646
2909,0.02797646,-0.03426402,-0.02797646
2911,0.02797646,-0.02797646,-0.02797646
2914,0.02797646,-0.02797646,-0.02797646
2916,0,-0.03426402,-0.01978234
2918,0,-0.03426402,-0.01978234
2921,0.01978234,-0.03426402,-0.01978234
2923,0.01978234,-0.03426402,-0.01978234
2925,0.02797646,-0.03956468,0
2928,0.02797646,-0.03426402,-0.01978234
2930,0.02797646,-0.03426402,-0.01978234
2932,0.02797646,-0.04423466,-0.01978234
2935,0.02797646,-0.04423466,-0.01978234
2937,0.02797646,-0.03956468,-0.01978234
2939,0.02797646,-0.03956468,-0.01978234
2942,0.03956468,-0.03956468,-0.01978234
2945,0.03956468,-0.04845664,-0.01978234
2947,0.03956468,-0.04845664,-0.01978234
2950,0.03956468,-0.04845664,0
2952,0.03956468,-0.04845664,0
2954,0.04845664,-0.05233916,0
2957,0.04845664,-0.05233916,0
2959,0.04845664,-0.05233916,0
2961,0.04423466,-0.05233916,-0.01978234
2964,0.04423466,-0.05233916,-0.01978234
2966,0.04845664,-0.04845664,0
2968,0.04845664,-0.04845664,0
2970,0.08156469,-0.08392937,0
2973,0.08846933,-0.09065409,0
2975,0.08846933,-0.09065409,0
2977,0.1008706,-0.1008706,-0.01978234
2980,0.1008706,-0.1008706,-0.01978234
2982,0.1136409,-0.1153499,0
2984,0.1282043,-0.1266688,0
2988,0.1282043,-0.1266688,0
2990,0.1532334,-0.1519511,0
2992,0.1532334,-0.1519511,0
2995,0.1678588,-0.165511,0
2997,0.1678588,-0.165511,0
2999,0.1791368,-0.1780411,0
3002,0.1713202,-0.1690205,0
3004,0.1713202,-0.1690205,0
3006,0.1678588,-0.166689,0
3009,0.1678588,-0.166689,0
3011,0.1855749,-0.183454,0
3013,0.1855749,-0.183454,0
3016,0.1928145,-0.1907741,0
3018,0.1866263,-0.1845175,0
3020,0.1866263,-0.1845175,0
3023,0.1866263,-0.1845175,0
3025,0.1866263,-0.1845175,0
3027,0.1928145,-0.1907741,0
3031,0.1968319,-0.1958353,0
3033,0.1968319,-0.1958353,0
3035,0.191797,-0.1907741,0
3038,0.191797,-0.1907741,0
3040,0.1845175,-0.183454,0
3042,0.1845175,-0.183454,0
3045,0.1724585,-0.1713202,0
3047,0.1701742,-0.1690205,0
3049,0.1701742,-0.1690205,0
3052,0.1780411,-0.1769387,0
3054,0.1780411,-0.1769387,0
3056,0.191797,-0.1887116,0
3058,0.2007689,-0.1978235,0
3061,0.2007689,-0.1978235,0
3063,0.2176059,-0.2148914,0
3065,0.2176059,-0.2148914,0
3068,0.2246844,-0.2220564,0
3070,0.2246844,-0.2220564,0
3073,0.2315465,-0.2289973,0
3076,0.2406627,-0.2373883,0
3078,0.2406627,-0.2373883,0
3080,0.2446942,-0.2430897,0
3083,0.2446942,-0.2430897,0
3085,0.2517883,-0.2478722,0
3087,0.2609472,-0.2586879,0
3090,0.2609472,-0.2586879,0
3092,0.2804634,-0.2783625,0
3094,0.2804634,-0.2783625,0
3097,0.3102743,-0.3077414,0
3099,0.3102743,-0.3077414,0
3101,0.3262592,-0.3250574,0
3104,0.3409232,-0.3397734,-0.01978234
3106,0.3538778,-0.3522151,-0.01978234
3108,0.3609945,-0.3593647,-0.01978234
3111,0.3609945,-0.3593647,-0.01978234
3113,0.3674413,-0.3658403,-0.02797646
3116,0.3674413,-0.3658403,-0.02797646
3119,0.2121421,-0.2121421,-0.0656106
3121,0.1594904,-0.1570175,-0.08156469
3123,0.1594904,-0.1570175,-0.08156469
3126,0.09487279,-0.08846933,-0.09891172
3128,0.09487279,-0.08846933,-0.09891172
3130,0.1170339,0.09891172,-0.1282043
3133,0.1678588,0.1545051,-0.1398823
3135,0.1678588,0.1545051,-0.1398823
3137,0.2185032,0.2065338,-0.1506579
3140,0.2185032,0.2065338,-0.1506579
3142,0.3058279,0.2934199,-0.1690205
3144,0.3058279,0.2934199,-0.1690205
3146,0.3409232,0.3292442,-0.1758294
3149,0.3685048,0.3555328,-0.1813082
3151,0.3685048,0.3555328,-0.1813082
3153,0.4173099,0.403483,-0.1928145
3156,0.4173099,0.403483,-0.1928145
3159,0.4311472,0.4177785,-0.1938267
3161,0.4575681,0.4458725,-0.1968319
3164,0.4575681,0.4458725,-0.1968319
3166,0.4718838,0.4597013,-0.199792
3168,0.4718838,0.4597013,-0.199792
3171,0.4813265,0.4693892,-0.2007689
3173,0.4813265,0.4693892,-0.2007689
3175,0.4961402,0.4837596,-0.2017412
3178,0.5024107,0.4901886,-0.2027088
3180,0.5024107,0.4901886,-0.2027088
3182,0.5147229,0.501241,-0.2046302
3185,0.5147229,0.501241,-0.2046302
3187,0.5207698,0.5066768,-0.2065338
3189,0.5207698,0.5066768,-0.2065338
3192,0.5271187,0.5128186,-0.20842
3194,0.5439265,0.5293413,-0.2093567
3196,0.5439265,0.5293413,-0.2093567
3200,0.5524929,0.5370479,-0.2112177
3202,0.5524929,0.5370479,-0.2112177
3204,0.5319225,0.5177552,-0.2065338
3207,0.5308178,0.5166202,-0.2065338
3209,0.5308178,0.5166202,-0.2065338
3211,0.533392,0.5188877,-0.2065338
3214,0.533392,0.5188877,-0.2065338
3216,0.5200178,0.5055169,-0.2055842
3218,0.5200178,0.5055169,-0.2055842
3221,0.5105241,0.4953507,-0.2055842
3223,0.4897892,0.4743652,-0.2046302
3225,0.4897892,0.4743652,-0.2046302
3228,0.4796977,0.4643598,-0.2017412
3230,0.4796977,0.4643598,-0.2017412
3232,0.4718838,0.4571402,-0.2007689
3234,0.3695653,0.3593647,-0.1769387
3237,0.3695653,0.3593647,-0.1769387
3239,0.3322025,0.324455,-0.1678588
3241,0.3322025,0.324455,-0.1678588
3245,0.3226406,0.3140353,-0.1678588
3247,0.3226406,0.3140353,-0.1678588
3249,0.3304307,0.3214254,-0.1701742
3252,0.3420692,0.3333784,-0.1735894
3254,0.3420692,0.3333784,-0.1735894
3256,0.3471792,0.3374619,-0.174713
3259,0.3471792,0.3374619,-0.174713
3261,0.3571801,0.3471792,-0.1769387
3263,0.3351346,0.3262592,-0.1690205
3266,0.3351346,0.3262592,-0.1690205
3268,0.3102743,0.302612,-0.1607126
3270,0.3102743,0.302612,-0.1607126
3273,0.2887141,0.2839303,-0.1519511
3275,0.2887141,0.2839303,-0.1519511
3277,0.2229358,0.2238118,-0.1297215
3280,0.1978235,0.2007689,-0.1219466
3282,0.1978235,0.2007689,-0.1219466
3284,0.1493534,0.1582588,-0.1065312
3288,0.1493534,0.1582588,-0.1065312
3290,0.1282043,0.1412742,-0.09891172
3292,0.1282043,0.1412742,-0.09891172
3295,0.1101434,0.1266688,-0.09278741
3297,0.08156469,0.1046783,-0.08392937
3299,0.08156469,0.1046783,-0.08392937
3302,0.07132626,0.09891172,-0.08156469
3304,0.07132626,0.09891172,-0.08156469
3306,0.05233916,0.08846933,-0.07661668
3309,0.04845664,0.08622923,-0.07132626
3311,0.04845664,0.08622923,-0.07132626
3313,0.03956468,0.08392937,-0.06852804
3316,0.03956468,0.08392937,-0.06852804
3318,0.02797646,-0.09065409,-0.05934703
3320,0.02797646,-0.09065409,-0.05934703
3322,0.03426402,-0.09691329,-0.05233916
3325,0.02797646,-0.09691329,-0.03956468
3328,0.02797646,-0.09691329,-0.03956468
3330,0.03426402,-0.09891172,-0.03956468
3333,0.03426402,-0.09891172,-0.03956468
3335,0.04423466,-0.1008706,-0.01978234
3337,0.05595291,-0.1027921,-0.01978234
3340,0.05595291,-0.1027921,-0.01978234
3342,0.05595291,-0.1027921,0
3344,0.05595291,-0.1027921,0
3347,0.06255726,-0.1008706,0
3349,0.06255726,-0.1008706,0
3351,0.05934703,-0.1008706,0
3354,0.06255726,-0.09891172,0
3356,0.06255726,-0.09891172,0
3358,0.0656106,-0.09691329,0
3361,0.0656106,-0.09691329,0
3363,0.07132626,-0.09891172,0
3365,0.06852804,-0.09487279,0
3368,0.06852804,-0.09487279,0
3371,0.0656106,-0.09278741,0
3373,0.0656106,-0.09278741,0
3376,0.0656106,-0.09278741,0.01978234
3378,0.0656106,-0.09278741,0.01978234
3380,0.06255726,-0.09065409,0
3383,0.05934703,-0.09065409,0
3385,0.05934703,-0.09065409,0
3387,0.05595291,-0.09065409,0
3390,0.05595291,-0.09065409,0
3392,0.05595291,-0.09065409,0
3394,0.05595291,-0.09065409,0
3397,0.04423466,-0.09065409,0
3399,0.04423466,-0.09065409,0
3401,0.04423466,-0.09065409,0
3403,0.04845664,-0.09065409,0
3406,0.04845664,-0.09065409,0
3408,0.03426402,0.09278741,0
3410,0.0656106,0.1136409,0
3414,0.0656106,0.1136409,0
3416,0.09691329,0.1384764,-0.02797646
3418,0.09691329,0.1384764,-0.02797646
3421,0.1008706,0.1398823,-0.01978234
3423,0.1008706,0.1398823,-0.01978234
3425,0.1384764,0.1701742,-0.03426402
3428,0.1690205,0.1968319,-0.03956468
3430,0.1690205,0.1968319,-0.03956468
3432,0.1938267,0.2193969,-0.04423466
3435,0.1938267,0.2193969,-0.04423466
3437,0.2556444,0.2755364,-0.06255726
3439,0.2797648,0.2980514,-0.07132626
3442,0.2797648,0.2980514,-0.07132626
3444,0.2797648,0.2980514,-0.07132626
3446,0.2797648,0.2980514,-0.07132626
3449,0.2797648,0.2980514,-0.07132626
3451,0.2797648,0.2980514,-0.07132626
3453,0.329838,0.3443497,-0.08392937
3457,0.3488659,0.3631561,-0.09278741
3459,0.3488659,0.3631561,-0.09278741
3461,0.3743001,0.386643,-0.1008706
3464,0.3743001,0.386643,-0.1008706
3466,0.3851218,0.3971285,-0.1027921
3468,0.3851218,0.3971285,-0.1027921
3471,0.3921704,0.403483,-0.1046783
3473,0.3990945,0.4102162,-0.1065312
3475,0.3990945,0.4102162,-0.1065312
3478,0.3995845,0.4111691,-0.1065312
3480,0.3995845,0.4111691,-0.1065312
3482,0.3990945,0.410693,-0.1101434
3485,0.3976209,0.409739,-0.1101434
3487,0.3976209,0.409739,-0.1101434
3489,0.3956476,0.4073442,-0.1101434
3491,0.3956476,0.4073442,-0.1101434
3494,0.3941611,0.4063823,-0.1065312
3496,0.3941611,0.4063823,-0.1065312
3499,0.3936644,0.4063823,-0.1083524
3502,0.3881583,0.3995845,-0.1101434
3504,0.3881583,0.3995845,-0.1101434
3506,0.386643,0.3990945,-0.1119058
3509,0.386643,0.3990945,-0.1119058
3511,0.3846134,0.3966355,-0.1101434
3513,0.3815487,0.3941611,-0.1101434
3516,0.3815487,0.3941611,-0.1101434
3518,0.3805216,0.3936644,-0.1101434
3520,0.3805216,0.3936644,-0.1101434
3523,0.3805216,0.3936644,-0.1083524
3525,0.3805216,0.3936644,-0.1083524
3527,0.3794918,0.393167,-0.1101434
3530,0.3800071,0.393167,-0.1083524
3532,0.3800071,0.393167,-0.1083524
3534,0.3784592,0.3911712,-0.1083524
3537,0.3784592,0.3911712,-0.1083524
3539,0.3784592,0.3921704,-0.1101434
3542,0.3800071,0.3936644,-0.1083524
3545,0.3800071,0.3936644,-0.1083524
3547,0.3815487,0.3951527,-0.1101434
3549,0.3815487,0.3951527,-0.1101434
3552,0.3835945,0.3971285,-0.1083524
3554,0.3835945,0.3971285,-0.1083524
3556,0.3891652,0.4020255,-0.1101434
3559,0.393167,0.4059006,-0.1083524
3561,0.393167,0.4059006,-0.1083524
3563,0.3995845,0.4125943,-0.1083524
3566,0.3995845,0.4125943,-0.1083524
3568,0.4044518,0.4173099,-0.1083524
3570,0.4044518,0.4173099,-0.1083524
3573,0.4087828,0.4210443,-0.1083524
3575,0.3658403,0.3794918,-0.09691329
3577,0.3658403,0.3794918,-0.09691329
3579,0.2993615,0.3165179,-0.07912937
3582,0.2993615,0.3165179,-0.07912937
3585,0.2564087,0.276953,-0.06852804
3587,0.1897456,0.2167048,-0.04845664
3590,0.1897456,0.2167048,-0.04845664
3592,0.1582588,0.1876719,-0.03956468
3594,0.1582588,0.1876719,-0.03956468
3597,0.1312212,0.1643245,-0.02797646
3599,0.1312212,0.1643245,-0.02797646
3601,0.1341704,0.166689,-0.02797646
3604,0.1545051,0.1845175,-0.03426402
3606,0.1545051,0.1845175,-0.03426402
3608,0.1493534,0.1791368,-0.03426402
3611,0.1493534,0.1791368,-0.03426402
3613,0.1384764,0.1701742,-0.01978234
3615,0.191797,0.2167048,-0.03956468
3618,0.191797,0.2167048,-0.03956468
3620,0.2102893,0.2332305,-0.03956468
3622,0.2102893,0.2332305,-0.03956468
3625,0.1968319,0.2211734,-0.03956468
3628,0.1968319,0.2211734,-0.03956468
3630,0.174713,0.2007689,-0.03426402
3633,0.166689,0.1928145,-0.01978234
3635,0.166689,0.1928145,-0.01978234
3637,0.1235407,0.1557664,-0.01978234
3640,0.1235407,0.1557664,-0.01978234
3642,0.1480375,0.1758294,-0.02797646
3644,0.166689,0.1928145,-0.02797646
3647,0.166689,0.1928145,-0.02797646
3649,0.165511,0.1928145,-0.02797646
3651,0.165511,0.1928145,-0.02797646
3654,0.1519511,0.1802258,-0.02797646
3656,0.1519511,0.1802258,-0.02797646
3658,0.1412742,0.1701742,-0.02797646
3661,0.1008706,0.1356209,-0.01978234
3663,0.1008706,0.1356209,-0.01978234
3665,0.07912937,0.1203313,0
3667,0.07912937,0.1203313,0
3671,0.04845664,0.09891172,0
3673,0.04845664,0.09891172,0
3675,0.03956468,0.09278741,0
3678,0.02797646,0.08622923,0
3680,0.02797646,0.08622923,0
3682,0.02797646,-0.08622923,0
3685,0.02797646,-0.08622923,0
3687,0.03426402,-0.08392937,0
3689,0.03956468,-0.08622923,0
3692,0.03956468,-0.08622923,0
3694,0.04423466,-0.08846933,0
3696,0.04423466,-0.08846933,0
3699,0.01978234,0.08622923,-0.01978234
3701,0.01978234,0.08622923,-0.01978234
3703,0.04423466,0.09691329,-0.01978234
3706,0.07132626,0.1136409,-0.02797646
3708,0.06852804,0.1119058,-0.02797646
3710,0.06852804,0.1119058,-0.03426402
3714,0.06852804,0.1119058,-0.03426402
3716,0.06852804,0.1119058,-0.02797646
3718,0.1370561,0.1631294,-0.04845664
3721,0.1370561,0.1631294,-0.04845664
3723,0.1619255,0.1866263,-0.04845664
3725,0.1619255,0.1866263,-0.04845664
3728,0.1545051,0.1791368,-0.04423466
3730,0.1545051,0.1791368,-0.04423466
3732,0.174713,0.1968319,-0.04845664
3735,0.1978235,0.2185032,-0.04845664
3737,0.1978235,0.2185032,-0.04845664
3739,0.2486604,0.2654082,-0.06255726
3742,0.2486604,0.2654082,-0.06255726
3744,0.2755364,0.2907402,-0.0656106
3746,0.2755364,0.2907402,-0.0656106
3749,0.2987072,0.3121605,-0.07132626
3751,0.3466151,0.358274,-0.07401875
3753,0.3466151,0.358274,-0.07401875
3756,0.3663747,0.3774237,-0.07661668
3759,0.3663747,0.3774237,-0.07661668
3761,0.3835945,0.3941611,-0.07912937
3763,0.4135417,0.4233615,-0.08156469
3766,0.4135417,0.4233615,-0.08156469
3768,0.4265846,0.4356619,-0.08156469
3770,0.4265846,0.4356619,-0.08156469
3773,0.4471871,0.4558544,-0.07912937
3775,0.4471871,0.4558544,-0.07912937
3777,0.454995,0.4635163,-0.07661668
3780,0.463094,0.4714689,-0.07661668
3782,0.463094,0.4714689,-0.07661668
3784,0.4792896,0.4869847,-0.07661668
3787,0.4792896,0.4869847,-0.07661668
3789,0.4861804,0.4937682,-0.07661668
3791,0.4921804,0.4996771,-0.07401875
3794,0.4921804,0.4996771,-0.07401875
3796,0.4981082,0.5059038,-0.07132626
3799,0.4981082,0.5059038,-0.07132626
3802,0.5043544,0.5116726,-0.06852804
3804,0.5043544,0.5116726,-0.06852804
3806,0.5074486,0.5151029,-0.06852804
3809,0.5143426,0.5211454,-0.0656106
3811,0.5143426,0.5211454,-0.0656106
3813,0.5177552,0.5248867,-0.06255726
3816,0.5177552,0.5248867,-0.06255726
3818,0.5211454,0.5286014,-0.06255726
3820,0.5267473,0.5337587,-0.05934703
3823,0.5267473,0.5337587,-0.05934703
3825,0.5286014,0.5352231,-0.05595291
3827,0.5286014,0.5352231,-0.05595291
3830,0.533025,0.5399548,-0.05595291
3832,0.533025,0.5399548,-0.05595291
3834,0.533392,0.5399548,-0.05233916
3837,0.5341251,0.5410409,-0.04845664
3840,0.5341251,0.5410409,-0.04845664
3842,0.5341251,0.5406791,-0.04845664
3844,0.5341251,0.5406791,-0.04845664
3847,0.5337587,0.5403171,-0.04423466
3849,0.5337587,0.5403171,-0.04423466
3851,0.5311863,0.5374122,-0.04423466
3854,0.5286014,0.5352231,-0.04423466
3856,0.5286014,0.5352231,-0.04423466
3858,0.5271187,0.533392,-0.04423466
3861,0.5271187,0.533392,-0.04423466
3863,0.5260038,0.5322903,-0.04423466
3865,0.5252593,0.5315546,-0.04423466
3868,0.5252593,0.5315546,-0.04423466
3870,0.5248867,0.5315546,-0.04423466
3872,0.5248867,0.5315546,-0.04423466
3875,0.5256317,0.5319225,-0.04423466
3877,0.5256317,0.5319225,-0.04423466
3879,0.5226451,0.5289715,-0.04845664
3883,0.5188877,0.5256317,-0.04845664
3885,0.5188877,0.5256317,-0.04845664
3887,0.5151029,0.5215207,-0.05233916
3890,0.5151029,0.5215207,-0.05233916
3892,0.5120549,0.5188877,-0.05233916
3894,0.5101407,0.5166202,-0.05595291
3897,0.5101407,0.5166202,-0.05595291
3899,0.5051297,0.5109072,-0.05934703
3901,0.5051297,0.5109072,-0.05934703
3904,0.501241,0.5078341,-0.05934703
3906,0.501241,0.5078341,-0.05934703
3908,0.4965344,0.5031891,-0.06255726
3911,0.4929749,0.4988932,-0.06255726
3913,0.4929749,0.4988932,-0.06255726
3915,0.4853748,0.4921804,-0.0656106
3918,0.4853748,0.4921804,-0.0656106
3920,0.4817329,0.4881886,-0.0656106
3922,0.4817329,0.4881886,-0.0656106
3926,0.4739525,0.4805128,-0.06852804
3928,0.4702222,0.4764233,-0.06852804
3930,0.4702222,0.4764233,-0.06852804
3932,0.4668813,0.4739525,-0.07132626
3935,0.4668813,0.4739525,-0.07132626
3937,0.4614008,0.468137,-0.07401875
3939,0.4592754,0.4652019,-0.07401875
3942,0.4592754,0.4652019,-0.07401875
3944,0.456712,0.4635163,-0.07661668
3946,0.456712,0.4635163,-0.07661668
3949,0.4532716,0.4601268,-0.07912937
3951,0.4532716,0.4601268,-0.07912937
3953,0.450674,0.4571402,-0.07912937
3956,0.4484978,0.4554249,-0.08156469
3958,0.4484978,0.4554249,-0.08156469
3960,0.4436728,0.4511079,-0.07912937
3963,0.4436728,0.4511079,-0.07912937
3965,0.4427898,0.4502396,-0.07912937
3968,0.4383485,0.4454334,-0.07912937
3971,0.4383485,0.4454334,-0.07912937
3973,0.4343124,0.4419051,-0.08156469
3975,0.4343124,0.4419051,-0.08156469
3978,0.4297835,0.4379019,-0.07661668
3980,0.4297835,0.4379019,-0.07661668
3982,0.4279585,0.4356619,-0.07661668
3985,0.4265846,0.4347627,-0.07661668
3987,0.4265846,0.4347627,-0.07661668
3989,0.4247459,0.4325065,-0.07661668
3992,0.4247459,0.4325065,-0.07661668
3994,0.4242849,0.4320539,-0.07401875
3996,0.4233615,0.4316007,-0.07401875
3999,0.4233615,0.4316007,-0.07401875
4001,0.4224361,0.4311472,-0.07401875
4003,0.4224361,0.4311472,-0.07401875
4006,0.4224361,0.4311472,-0.07401875
4008,0.4224361,0.4311472,-0.07401875
4011,0.4210443,0.4297835,-0.07132626
4013,0.4205793,0.4297835,-0.07132626
4016,0.4205793,0.4297835,-0.07132626
4018,0.4205793,0.4297835,-0.06852804
4020,0.4205793,0.4297835,-0.06852804
4023,0.4210443,0.4297835,-0.06852804
4025,0.4210443,0.4297835,-0.06852804
4027,0.4219727,0.4311472,-0.0656106
4030,0.4224361,0.4316007,-0.0656106
4032,0.4224361,0.4316007,-0.0656106
4034,0.4247459,0.4343124,-0.0656106
4037,0.4247459,0.4343124,-0.0656106
4039,0.4256662,0.4352126,-0.05934703
4041,0.427501,0.4370072,-0.05934703
4044,0.427501,0.4370072,-0.05934703
4046,0.4279585,0.4379019,-0.06255726
4048,0.4279585,0.4379019,-0.06255726
4051,0.4302385,0.4396856,-0.05934703
4054,0.4302385,0.4396856,-0.05934703
4056,0.4316007,0.4419051,-0.05595291
4059,0.4320539,0.4423477,-0.05595291
4061,0.4320539,0.4423477,-0.05595291
4063,0.4320539,0.4427898,-0.05233916
4066,0.4320539,0.4427898,-0.05233916
4068,0.4320539,0.4419051,-0.05233916
4070,0.4325065,0.4427898,-0.05595291
4073,0.4325065,0.4427898,-0.05595291
4075,0.4338616,0.4436728,-0.04845664
4077,0.4338616,0.4436728,-0.04845664
4080,0.4352126,0.4449939,-0.04845664
4082,0.4356619,0.4449939,-0.04845664
4084,0.4541341,0.4635163,-0.05233916
4087,0.4693892,0.4788812,-0.05233916
4089,0.4693892,0.4788812,-0.05233916
4091,0.4722982,0.4813265,-0.05595291
4094,0.4722982,0.4813265,-0.05595291
4097,0.4784724,0.4873863,-0.05595291
4099,0.4760123,0.4849715,-0.05595291
4101,0.4760123,0.4849715,-0.05595291
4104,0.4743652,0.4837596,-0.05595291
4106,0.4743652,0.4837596,-0.05595291
4108,0.4693892,0.4788812,-0.05934703
4111,0.4693892,0.4788812,-0.05934703
4113,0.466462,0.4760123,-0.05934703
4115,0.4949555,0.5039662,-0.04423466
4118,0.4949555,0.5039662,-0.04423466
4120,0.5062904,0.5154827,-0.03956468
4122,0.5062904,0.5154827,-0.03956468
4125,0.5196414,0.5289715,-0.03956468
4127,0.5196414,0.5289715,-0.03956468
4129,0.5417637,0.5510744,-0.02797646
4132,0.5654452,0.5747126,-0.01978234
4134,0.5654452,0.5747126,-0.01978234
4136,0.5861744,0.5947903,-0.02797646
4140,0.5861744,0.5947903,-0.02797646
4142,0.6068404,0.615167,-0.02797646
4144,0.6094146,0.6180231,-0.01978234
4147,0.6094146,0.6180231,-0.01978234
4149,0.6094146,0.6180231,-0.01978234
4151,0.6094146,0.6180231,-0.01978234
4154,0.6094146,0.6180231,-0.01978234
4156,0.6094146,0.6180231,-0.01978234
4158,0.6074851,0.6158028,-0.02797646
4161,0.6720214,0.6795497,-0.04845664
4163,0.6720214,0.6795497,-0.04845664
4165,0.6982958,0.7049889,-0.05595291
4168,0.6982958,0.7049889,-0.05595291
4170,0.6477052,0.6543178,-0.0656106
4172,0.6258884,0.6330382,-0.06852804
4175,0.6258884,0.6330382,-0.06852804
4177,0.608772,0.6158028,-0.07132626
4179,0.608772,0.6158028,-0.07132626
4183,0.5865081,0.5938025,-0.07132626
4185,0.5865081,0.5938025,-0.07132626
4187,0.5794597,0.587175,-0.07401875
4189,0.5740312,0.5818186,-0.07401875
4192,0.5740312,0.5818186,-0.07401875
4194,0.563365,0.5712977,-0.07401875
4196,0.563365,0.5712977,-0.07401875
4199,0.5598809,0.5685511,-0.07401875
4201,0.5598809,0.5685511,-0.07401875
4203,0.5528469,0.5612772,-0.07132626
4206,0.5510744,0.5595313,-0.07132626
4208,0.5510744,0.5595313,-0.07132626
4210,0.5478694,0.5567266,-0.06852804
4213,0.5478694,0.5567266,-0.06852804
4215,0.5471546,0.556375,-0.07132626
4217,0.5532007,0.5612772,-0.07661668
4220,0.5532007,0.5612772,-0.07661668
4222,0.4913847,0.4985009,-0.07401875
4225,0.4913847,0.4985009,-0.07401875
4228,0.4365593,0.4432315,-0.0656106
4230,0.4365593,0.4432315,-0.0656106
4232,0.3906707,0.3976209,-0.05934703
4235,0.2661444,0.272681,-0.03956468
4237,0.2661444,0.272681,-0.03956468
4239,0.2185032,0.2255535,-0.03426402
4242,0.2185032,0.2255535,-0.03426402
4244,0.1297215,0.1370561,0
4246,0.09691329,0.09891172,0
4249,0.09691329,0.09891172,0
4251,0.07401875,0.07132626,0
4253,0.07401875,0.07132626,0
4256,0.04845664,0.03426402,0
4258,0.04845664,0.03426402,0
4260,0.04845664,0.01978234,0
4263,0.05595291,-0.01978234,0.01978234
4265,0.05595291,-0.01978234,0.01978234
4268,0.05934703,-0.01978234,0.01978234
4271,0.05934703,-0.01978234,0.01978234
4273,0.0656106,-0.02797646,0.02797646
4275,0.07661668,0.07132626,0
4277,0.07661668,0.07132626,0
4280,0.1008706,0.1008706,0
4282,0.1008706,0.1008706,0
4284,0.09891172,0.09891172,0
4287,0.09891172,0.09891172,0
4289,0.09487279,0.09065409,0
4291,0.08156469,0.07661668,0
4294,0.08156469,0.07661668,0
4296,0.07132626,0.06255726,0
4298,0.07132626,0.06255726,0
4301,0.1027921,0.1046783,0
4303,0.1027921,0.1046783,0
4305,0.14537,0.1493534,0
4308,0.1356209,0.1384764,0
4311,0.1356209,0.1384764,0
4313,0.1297215,0.1341704,0
4316,0.1297215,0.1341704,0
4318,0.1065312,0.09278741,0
4320,0.07912937,0.07401875,0
4323,0.07912937,0.07401875,0
4325,0.1153499,0.1219466,0
4327,0.1153499,0.1219466,0
4330,0.1813082,0.1887116,-0.01978234
4332,0.1813082,0.1887116,-0.01978234
4334,0.234068,0.2422834,-0.03426402
4337,0.3165179,0.3250574,-0.04845664
4339,0.3165179,0.3250574,-0.04845664
4341,0.2846186,0.2940859,-0.03956468
4344,0.2846186,0.2940859,-0.03956468
4346,0.2594432,0.268341,-0.03426402
4348,0.2478722,0.2579304,-0.03426402
4352,0.2478722,0.2579304,-0.03426402
4354,0.2564087,0.2661444,-0.03956468
4356,0.2564087,0.2661444,-0.03956468
4359,0.2934199,0.3019647,-0.04845664
4361,0.2934199,0.3019647,-0.04845664
4363,0.3505445,0.358274,-0.06255726
4365,0.3669084,0.3743001,-0.06852804
4368,0.3669084,0.3743001,-0.06852804
4370,0.3815487,0.3886621,-0.07401875
4372,0.3815487,0.3886621,-0.07401875
4375,0.4182466,0.4252063,-0.07912937
4377,0.4387946,0.4458725,-0.08156469
4379,0.4387946,0.4458725,-0.08156469
4382,0.4622481,0.4689721,-0.08392937
4384,0.4622481,0.4689721,-0.08392937
4386,0.4677188,0.4743652,-0.08392937
4389,0.4677188,0.4743652,-0.08392937
4391,0.4735395,0.4805128,-0.08622923
4393,0.4722982,0.4792896,-0.08392937
4397,0.4722982,0.4792896,-0.08392937
4399,0.4677188,0.4747775,-0.08392937
4401,0.4677188,0.4747775,-0.08392937
4404,0.4652019,0.4727124,-0.08392937
4406,0.4652019,0.4727124,-0.08392937
4408,0.4626713,0.4702222,-0.08156469
4411,0.4622481,0.4702222,-0.08156469
4413,0.4622481,0.4702222,-0.08156469
4415,0.4626713,0.4706381,-0.08156469
4418,0.4626713,0.4706381,-0.08156469
4420,0.4945601,0.5020211,-0.07912937
4422,0.4957456,0.5031891,-0.07912937
4425,0.4957456,0.5031891,-0.07912937
4427,0.5000685,0.5082192,-0.07661668
4429,0.5000685,0.5082192,-0.07661668
4432,0.5039662,0.5120549,-0.07661668
4434,0.5039662,0.5120549,-0.07661668
4436,0.501241,0.5093729,-0.07401875
4440,0.5120549,0.5200178,-0.07661668
4442,0.5120549,0.5200178,-0.07661668
4444,0.5226451,0.530449,-0.07661668
4447,0.5226451,0.530449,-0.07661668
4449,0.533392,0.5406791,-0.07912937
4451,0.5567266,0.5637122,-0.07912937
4453,0.5567266,0.5637122,-0.07912937
4456,0.5671728,0.5740312,-0.08156469
4458,0.5671728,0.5740312,-0.08156469
4460,0.5535544,0.5605795,-0.07912937
4463,0.5535544,0.5605795,-0.07912937
4465,0.5567266,0.5637122,-0.07912937
4467,0.5598809,0.5671728,-0.07912937
4470,0.5598809,0.5671728,-0.07912937
4472,0.5630175,0.5702693,-0.07912937
4474,0.5630175,0.5702693,-0.07912937
4477,0.5736903,0.5804718,-0.07912937
4480,0.5736903,0.5804718,-0.07912937
4482,0.5784457,0.5848376,-0.08156469
4485,0.5574291,0.5640592,-0.07912937
4487,0.5574291,0.5640592,-0.07912937
4489,0.5500081,0.5570779,-0.08156469
4492,0.5500081,0.5570779,-0.08156469
4494,0.5237671,0.5308178,-0.07401875
4496,0.5143426,0.5218958,-0.07132626
4499,0.5143426,0.5218958,-0.07132626
4501,0.5211454,0.5278606,-0.07132626
4503,0.5211454,0.5278606,-0.07132626
4506,0.5366834,0.5435666,-0.07661668
4508,0.5366834,0.5435666,-0.07661668
4510,0.5453635,0.5517841,-0.07661668
4513,0.5521386,0.5588315,-0.07661668
4515,0.5521386,0.5588315,-0.07661668
4517,0.5650989,0.5709552,-0.08156469
4520,0.5650989,0.5709552,-0.08156469
4523,0.5736903,0.5797972,-0.08392937
4525,0.5584812,0.564406,-0.08156469
4528,0.5584812,0.564406,-0.08156469
4530,0.5460806,0.5521386,-0.07912937
4532,0.5460806,0.5521386,-0.07912937
4535,0.5453635,0.5510744,-0.08156469
4537,0.5453635,0.5510744,-0.08156469
4539,0.5446455,0.5503638,-0.08156469
4541,0.5496522,0.5556712,-0.08156469
4544,0.5496522,0.5556712,-0.08156469
4546,0.5567266,0.5623221,-0.08392937
4548,0.5567266,0.5623221,-0.08392937
4551,0.5453635,0.5517841,-0.07912937
4553,0.5359538,0.5424856,-0.07912937
4555,0.5359538,0.5424856,-0.07912937
4558,0.509757,0.5166202,-0.07132626
4560,0.509757,0.5166202,-0.07132626
4562,0.4992853,0.5062904,-0.06852804
4566,0.4992853,0.5062904,-0.06852804
4568,0.5059038,0.5132,-0.07132626
4570,0.5154827,0.5226451,-0.07132626
4573,0.5154827,0.5226451,-0.07132626
4575,0.5109072,0.5177552,-0.06852804
4577,0.5109072,0.5177552,-0.06852804
4580,0.5062904,0.513962,-0.06852804
4582,0.5062904,0.513962,-0.0656106
4584,0.5132,0.5207698,-0.0656106
4587,0.5218958,0.5289715,-0.06852804
4589,0.5218958,0.5289715,-0.06852804
4591,0.5286014,0.5482264,-0.07132626
4594,0.5410409,0.5482264,-0.07132626
4596,0.5507192,0.5574291,-0.07401875
4598,0.5453635,0.5524929,-0.06852804
4601,0.5453635,0.5524929,-0.06852804
4603,0.5406791,0.5485832,-0.0656106
4605,0.5406791,0.5485832,-0.0656106
4609,0.5457222,0.5532007,-0.0656106
4611,0.5457222,0.5532007,-0.0656106
4613,0.5581307,0.5654452,-0.0656106
4616,0.5682068,0.5757331,-0.0656106
4618,0.5682068,0.5757331,-0.0656106
4620,0.5764125,0.5834977,-0.06852804
4622,0.5764125,0.5834977,-0.06852804
4625,0.5861744,0.5931431,-0.06852804
4627,0.6003569,0.6071628,-0.07132626
4629,0.6003569,0.6071628,-0.07132626
4632,0.6068404,0.6135744,-0.07132626
4634,0.6068404,0.6135744,-0.07132626
4636,0.6158028,0.6221254,-0.06852804
4639,0.6158028,0.6221254,-0.06852804
4641,0.6202354,0.6265134,-0.06852804
4643,0.6236961,0.6299395,-0.0656106
4646,0.6236961,0.6299395,-0.0656106
4648,0.6277614,0.6342734,-0.06852804
4651,0.6277614,0.6342734,-0.06852804
4654,0.6286958,0.6355062,-0.0656106
4656,0.6286958,0.6355062,-0.0656106
4658,0.6299395,0.6364292,-0.0656106
4661,0.6299395,0.6367366,-0.0656106
4663,0.6299395,0.6367366,-0.0656106
4665,0.63025,0.6367366,-0.0656106
4668,0.63025,0.6367366,-0.0656106
4670,0.63025,0.6370438,-0.0656106
4672,0.63025,0.6370438,-0.06255726
4675,0.63025,0.6370438,-0.06255726
4677,0.63025,0.6367366,-0.0656106
4679,0.63025,0.6367366,-0.0656106
4682,0.6299395,0.6367366,-0.06852804
4684,0.6299395,0.6367366,-0.06852804
4686,0.63025,0.6370438,-0.06852804
4689,0.6299395,0.6370438,-0.0656106
4691,0.6299395,0.6370438,-0.0656106
4694,0.6286958,0.635814,-0.06852804
4697,0.6286958,0.635814,-0.06852804
4699,0.628073,0.6348901,-0.06852804
4701,0.6268256,0.6339648,-0.0656106
4704,0.6268256,0.6339648,-0.0656106
4706,0.6252628,0.6321102,-0.0656106
4708,0.6252628,0.6321102,-0.0656106
4710,0.6246366,0.6314908,-0.06852804
4713,0.6246366,0.6314908,-0.06852804
4715,0.6230683,0.6299395,-0.07132626
4717,0.6224399,0.6293179,-0.06852804
4720,0.6224399,0.6293179,-0.06852804
4722,0.6218109,0.6286958,-0.06852804
4724,0.6218109,0.6286958,-0.06852804
4727,0.6199199,0.6262009,-0.07132626
4729,0.618656,0.6252628,-0.06852804
4731,0.618656,0.6252628,-0.06852804
4734,0.6177064,0.6243232,-0.07132626
4737,0.6177064,0.6243232,-0.07132626
4739,0.6000308,0.6061952,-0.07401875
4742,0.6000308,0.6061952,-0.07401875
4744,0.5855064,0.591822,-0.07401875
4746,0.5736903,0.5801346,-0.07661668
4749,0.5736903,0.5801346,-0.07661668
4751,0.5706123,0.577091,-0.07401875
4753,0.5706123,0.577091,-0.07401875
4756,0.5688952,0.5753932,-0.07661668
4758,0.5688952,0.5753932,-0.07661668
4760,0.5726661,0.5784457,-0.07661668
4763,0.575053,0.5814822,-0.07912937
4765,0.575053,0.5814822,-0.07912937
4767,0.5528469,0.5591815,-0.07912937
4770,0.5528469,0.5591815,-0.07912937
4772,0.5439265,0.5507192,-0.07661668
4774,0.4760123,0.4829499,-0.06255726
4777,0.4760123,0.4829499,-0.06255726
4780,0.4182466,0.4247459,-0.04845664
4782,0.4182466,0.4247459,-0.04845664
4785,0.4159008,0.4228991,-0.04845664
4787,0.4159008,0.4228991,-0.04845664
4789,0.4135417,0.4201138,-0.04845664
4792,0.3609945,0.3674413,-0.03956468
4794,0.3609945,0.3674413,-0.03956468
4796,0.2790645,0.2839303,0
4798,0.2790645,0.2839303,0
4801,0.2306999,0.2349025,0
4803,0.1907741,0.1928145,0
4805,0.1907741,0.1928145,0
4808,0.1251145,0.1170339,0
4810,0.1251145,0.1170339,0
4812,0.1008706,0.08622923,0.01978234
4815,0.1008706,0.08622923,0.01978234
4817,0.08622923,0.05595291,0.03426402
4819,0.1545051,0.1506579,0
4823,0.1545051,0.1506579,0
4825,0.1493534,0.1440177,0.01978234
4827,0.1493534,0.1440177,0.01978234
4830,0.1440177,0.1370561,0.01978234
4832,0.1887116,0.1876719,0
4834,0.1887116,0.1876719,0
4837,0.2586879,0.2609472,0
4839,0.2586879,0.2609472,0
4841,0.3102743,0.3140353,0
4844,0.3102743,0.3140353,0
4846,0.3533245,0.358274,-0.01978234
4848,0.4297835,0.4352126,-0.03426402
4851,0.4297835,0.4352126,-0.03426402
4853,0.4635163,0.4698059,-0.03426402
4855,0.4635163,0.4698059,-0.03426402
4858,0.5185105,0.5245137,-0.04845664
4860,0.5185105,0.5245137,-0.04845664
4862,0.5185105,0.5245137,-0.04845664
4866,0.5185105,0.5245137,-0.04845664
4868,0.5185105,0.5245137,-0.04845664
4870,0.5439265,0.5503638,-0.04845664
4873,0.5439265,0.5503638,-0.04845664
4875,0.5818186,0.5885065,-0.05233916
4877,0.5957764,0.6023093,-0.05595291
4880,0.5957764,0.6023093,-0.05595291
4882,0.6161205,0.6227542,-0.05934703
4884,0.6161205,0.6227542,-0.05934703
4886,0.6240098,0.6305605,-0.05934703
4889,0.6240098,0.6305605,-0.05934703
4891,0.6348901,0.6416347,-0.06255726
4893,0.6385778,0.6452838,-0.05934703
4896,0.6385778,0.6452838,-0.05934703
4898,0.6422443,0.6489125,-0.05934703
4900,0.6422443,0.6489125,-0.05934703
4903,0.6440698,0.6507192,-0.05934703
4905,0.6449805,0.6516207,-0.05934703
4908,0.6449805,0.6516207,-0.05934703
4911,0.646193,0.6531205,-0.05934703
4913,0.646193,0.6531205,-0.05934703
4915,0.6510199,0.6575991,-0.05934703
4918,0.6510199,0.6575991,-0.05934703
4920,0.65342,0.660568,-0.05934703
4922,0.6564078,0.6632286,-0.05595291
4925,0.6564078,0.6632286,-0.05595291
4927,0.659382,0.6664661,-0.05934703
4929,0.659382,0.6664661,-0.05934703
4932,0.6611602,0.6685182,-0.05934703
4934,0.6611602,0.6685182,-0.05934703
4936,0.6626383,0.6696879,-0.06255726
4939,0.6635236,0.6711472,-0.05934703
4941,0.6635236,0.6711472,-0.05934703
4943,0.6638185,0.6711472,-0.05934703
4946,0.6638185,0.6711472,-0.05934703
4948,0.6641131,0.6711472,-0.05934703
4951,0.6638185,0.6711472,-0.05934703
4954,0.6638185,0.6711472,-0.05934703
4956,0.6641131,0.6711472,-0.05934703
4958,0.6641131,0.6711472,-0.05934703
4961,0.6623429,0.6693957,-0.05934703
4963,0.6623429,0.6693957,-0.05934703
4965,0.6626383,0.6696879,-0.05934703
4968,0.6626383,0.6696879,-0.05934703
4970,0.6626383,0.6696879,-0.05934703
4972,0.6635236,0.6702721,-0.0656106
4974,0.6635236,0.6702721,-0.0656106
4977,0.6638185,0.6708556,-0.06255726
4979,0.6652907,0.6720214,-0.06255726
4981,0.6652907,0.6720214,-0.06255726
4984,0.6655847,0.6723125,-0.06255726
4986,0.6655847,0.6723125,-0.06255726
4988,0.6655847,0.6726035,-0.05934703
4992,0.6655847,0.6726035,-0.05934703
4994,0.6477052,0.6546168,-0.05595291
4996,0.6327289,0.640108,-0.05233916
4999,0.6327289,0.640108,-0.05233916
5001,0.6283845,0.6355062,-0.05233916
5003,0.6283845,0.6355062,-0.05233916
5006,0.6265134,0.6333472,-0.05233916
5008,0.6283845,0.6355062,-0.04845664
5010,0.6296288,0.6367366,-0.05233916
5013,0.6311808,0.6376578,-0.05233916
5015,0.6311808,0.6376578,-0.05233916
5017,0.6189722,0.6258884,-0.04423466
5020,0.6189722,0.6258884,-0.04423466
5022,0.6000308,0.6071628,-0.03956468
5024,0.5885065,0.5954478,-0.03426402
5027,0.5885065,0.5954478,-0.03426402
5029,0.5784457,0.5858405,-0.03956468
5031,0.5784457,0.5858405,-0.03956468
5035,0.5637122,0.5709552,-0.02797646
5037,0.5637122,0.5709552,-0.02797646
5039,0.5584812,0.5650989,-0.02797646
5042,0.5475121,0.5542608,-0.01978234
5044,0.5475121,0.5542608,-0.01978234
5046,0.5428462,0.5496522,0
5049,0.5428462,0.5496522,0
5051,0.5395923,0.5464389,-0.01978234
5053,0.5341251,0.5403171,0
5056,0.5341251,0.5403171,0
5058,0.5315546,0.5377761,0
5060,0.5315546,0.5377761,0
5062,0.5289715,0.5359538,0
5065,0.5289715,0.5359538,0
5067,0.5267473,0.533392,0
5069,0.5256317,0.5326577,0
5072,0.5256317,0.5326577,0
5074,0.5432066,0.5500081,0
5076,0.5432066,0.5500081,0
5080,0.5685511,0.5757331,-0.02797646
5082,0.5831623,0.590498,-0.02797646
5084,0.5831623,0.590498,-0.02797646
5087,0.6055493,0.612617,-0.03426402
5089,0.6055493,0.612617,-0.03426402
5091,0.6177064,0.6249498,-0.03956468
5094,0.6177064,0.6249498,-0.03956468
5096,0.6271377,0.6345818,-0.04423466
5098,0.6416347,0.6489125,-0.04423466
5101,0.6416347,0.6489125,-0.04423466
5103,0.6467983,0.6540186,-0.04423466
5105,0.6467983,0.6540186,-0.04423466
5108,0.6540186,0.6608641,-0.05233916
5110,0.6540186,0.6608641,-0.05233916
5112,0.6564078,0.6635236,-0.04845664
5115,0.6584912,0.6655847,-0.04845664
5117,0.6584912,0.6655847,-0.04845664
5120,0.6620474,0.6691033,-0.05595291
5123,0.6620474,0.6691033,-0.05595291
5125,0.6620474,0.6691033,-0.05233916
5127,0.6623429,0.6691033,-0.05233916
5130,0.6623429,0.6691033,-0.05233916
5132,0.6620474,0.6688108,-0.05595291
5134,0.6620474,0.6688108,-0.05595291
5137,0.6617518,0.6685182,-0.05233916
5139,0.6617518,0.6685182,-0.05233916
5141,0.6611602,0.6682253,-0.05233916
5144,0.6608641,0.6682253,-0.05233916
5146,0.6608641,0.6682253,-0.05233916
5148,0.6608641,0.6682253,-0.05595291
5150,0.6608641,0.6682253,-0.05595291
5153,0.660568,0.6676395,-0.05595291
5155,0.6599753,0.667053,-0.05595291
5157,0.6599753,0.667053,-0.05595291
5160,0.6596788,0.6667597,-0.05595291
5163,0.6596788,0.6667597,-0.05595291
5165,0.6596788,0.667053,-0.05595291
5168,0.6596788,0.667053,-0.05595291
5170,0.6596788,0.6667597,-0.05595291
5172,0.661456,0.6682253,-0.05934703
5175,0.661456,0.6682253,-0.05934703
5177,0.6617518,0.6691033,-0.05595291
5179,0.6617518,0.6691033,-0.05595291
5182,0.6626383,0.66998,-0.05595291
5184,0.6638185,0.6711472,-0.05595291
5186,0.6638185,0.6711472,-0.05595291
5189,0.6647022,0.6717301,-0.05934703
5191,0.6647022,0.6717301,-0.05934703
5193,0.5385033,0.5450047,-0.03426402
5196,0.5385033,0.5450047,-0.03426402
5198,0.5352231,0.5414024,-0.02797646
5200,0.5315546,0.5377761,-0.01978234
5203,0.5315546,0.5377761,-0.01978234
5206,0.4760123,0.4809199,-0.01978234
5208,0.4760123,0.4809199,-0.01978234
5211,0.4329587,0.4365593,0
5213,0.4329587,0.4365593,0
5215,0.3966355,0.3986039,0
5218,0.3146578,0.3127867,0.01978234
5220,0.3146578,0.3127867,0.01978234
5222,0.2839303,0.2783625,0.03426402
5225,0.2839303,0.2783625,0.03426402
5227,0.3499859,0.3477423,0.02797646
5229,0.3727285,0.3716771,0.01978234
5231,0.3727285,0.3716771,0.01978234
5234,0.4841639,0.4857778,0
5236,0.4841639,0.4857778,0
5238,0.5248867,0.5274898,0
5241,0.5248867,0.5274898,0
5243,0.5584812,0.5612772,0
5245,0.608772,0.6119779,0
5249,0.608772,0.6119779,0
5251,0.6271377,0.6308707,0
5253,0.6271377,0.6308707,0
5256,0.6561096,0.6596788,0
5258,0.6807005,0.6849989,0
5260,0.6807005,0.6849989,0
5263,0.7019292,0.7063754,0
5265,0.7019292,0.7063754,0
5267,0.7151849,0.719821,0
5270,0.7151849,0.719821,0
5272,0.7217214,0.7265852,0
5274,0.7380747,0.7433581,0
5277,0.7380747,0.7433581,0
5279,0.7654059,0.7710097,0
5281,0.7654059,0.7710097,0
5284,0.7783349,0.7840959,0
5286,0.7900625,0.7954926,0
5288,0.7900625,0.7954926,0
5292,0.8011303,0.8064859,0
5294,0.8011303,0.8064859,0
5296,0.8028382,0.8079404,0
5299,0.8028382,0.8079404,0
5301,0.7937689,0.798439,0
5303,0.7845948,0.7893192,0
5306,0.7845948,0.7893192,0
5308,0.7893192,0.7937689,0
5310,0.7893192,0.7937689,0
5313,0.798439,0.8033255,0
5315,0.798439,0.8033255,0
5317,0.8047857,0.8098756,0
5319,0.8158936,0.8211529,0
5322,0.8158936,0.8211529,0
5324,0.8206762,0.826142,0
5326,0.8206762,0.826142,0
5329,0.8006416,0.8057577,0
5331,0.7870849,0.7917944,0
5334,0.7870849,0.7917944,0
5337,0.7765731,0.7808449,0.01978234
5339,0.7765731,0.7808449,0.01978234
5341,0.7569224,0.760533,0.01978234
5344,0.7569224,0.760533,0.01978234
5346,0.7478197,0.7512136,0.01978234
5348,0.7340872,0.7370135,0.01978234
5351,0.7340872,0.7370135,0.01978234
5353,0.729005,0.7319516,0.01978234
5355,0.729005,0.7319516,0.01978234
5358,0.7252374,0.7279305,0.02797646
5360,0.7319516,0.7340872,0.01978234
5362,0.7319516,0.7340872,0.01978234
5365,0.7346201,0.7364823,0.02797646
5367,0.7346201,0.7364823,0.02797646
5369,0.7348864,0.7367479,0.01978234
5372,0.7348864,0.7367479,0.01978234
5374,0.7359507,0.7378095,0.01978234
5377,0.7375443,0.7391344,0.03426402
5380,0.7375443,0.7391344,0.03426402
5382,0.7465102,0.747558,0.02797646
5384,0.7465102,0.747558,0.02797646
5387,0.7530347,0.7540734,0.03426402
5389,0.7530347,0.7540734,0.03426402
5391,0.7625886,0.7636142,0.02797646
5394,0.7715172,0.7722777,0.02797646
5396,0.7715172,0.7722777,0.02797646
5398,0.7898148,0.7905577,0.02797646
5401,0.7898148,0.7905577,0.02797646
5403,0.798439,0.7994187,0.03426402
5405,0.8055148,0.8064859,0.02797646
5407,0.8055148,0.8064859,0.02797646
5410,0.8144533,0.8154138,0.02797646
5412,0.8144533,0.8154138,0.02797646
5414,0.81781,0.8190054,0.02797646
5417,0.81781,0.8190054,0.02797646
5420,0.8263788,0.8277984,0.01978234
5422,0.8325126,0.8339216,0.02797646
5425,0.8325126,0.8339216,0.02797646
5427,0.8374339,0.839068,0.02797646
5429,0.8374339,0.839068,0.02797646
5432,0.8481144,0.8497278,0.02797646
5434,0.8534044,0.8545501,0.03426402
5436,0.8534044,0.8545501,0.03426402
5439,0.8645667,0.8654715,0.02797646
5441,0.8645667,0.8654715,0.02797646
5443,0.8702065,0.8711056,0.03426402
5446,0.8702065,0.8711056,0.03426402
5448,0.8749159,0.8758101,0.03426402
5450,0.8860281,0.886911,0.03956468
5453,0.8860281,0.886911,0.03956468
5455,0.8904341,0.8908735,0.03956468
5457,0.8904341,0.8908735,0.03956468
5460,0.8963478,0.8972207,0.03956468
5463,0.9054703,0.906766,0.03426402
5465,0.9054703,0.906766,0.03426402
5468,0.9095671,0.9106421,0.03956468
5470,0.9095671,0.9106421,0.03956468
5472,0.9196228,0.9208986,0.04423466
5475,0.9196228,0.9208986,0.04423466
5477,0.9251386,0.9264069,0.04423466
5479,0.9333511,0.9343988,0.04845664
5482,0.9333511,0.9343988,0.04845664
5484,0.9387863,0.939828,0.04845664
5486,0.9387863,0.939828,0.04845664
5489,0.9431533,0.9443973,0.04423466
5491,0.9431533,0.9443973,0.04423466
5493,0.9522384,0.9536759,0.04423466
5495,0.9557254,0.9565441,0.04845664
5498,0.9557254,0.9565441,0.04845664
5500,0.9620516,0.9626616,0.05595291
5502,0.9620516,0.9626616,0.05595291
5506,0.9644893,0.9646922,0.05934703
5508,0.964895,0.9655032,0.05595291
5510,0.964895,0.9655032,0.05595291
5513,0.9657058,0.9661109,0.05934703
5515,0.9657058,0.9661109,0.05934703
5517,0.9667184,0.9673254,0.05934703
5520,0.9667184,0.9673254,0.05934703
5522,0.9685385,0.9687405,0.05934703
5524,0.9685385,0.9685385,0.05934703
5527,0.9685385,0.9685385,0.05934703
5529,0.9687405,0.9685385,0.06255726
5531,0.9687405,0.9685385,0.06255726
5534,0.9805858,0.9803861,0.05934703
5536,0.9905132,0.9903157,0.05934703
5538,0.9905132,0.9903157,0.05934703
5541,0.9903157,0.9909081,0.05595291
5543,0.9903157,0.9909081,0.05595291
5545,0.9907107,0.991303,0.05595291
5549,0.9907107,0.991303,0.05595291
5551,1.019908,1.02125,0.04845664
5553,1.065327,1.067529,0.03956468
5556,1.065327,1.067529,0.03956468
5558,1.060171,1.062384,0.03956468
5560,1.060171,1.062384,0.03956468
5563,1.053877,1.056288,0.03956468
5565,1.053877,1.056288,0.03956468
5567,1.053877,1.056288,0.03956468
5570,1.053877,1.056288,0.03956468
5572,1.053877,1.056288,0.03956468
5574,1.037975,1.040423,0.03956468
5577,1.037975,1.040423,0.03956468
5579,1.025838,1.028315,0.03956468
5581,1.02641,1.029266,0.03426402
5583,1.02641,1.029266,0.03426402
5586,1.042677,1.046237,0.03426402
5588,1.042677,1.046237,0.03426402
5591,1.049971,1.053692,0.03956468
5594,1.049971,1.053692,0.03956468
5596,1.043427,1.047171,0.03426402
5598,1.028696,1.032682,0.03426402
5601,1.028696,1.032682,0.03426402
5603,1.02125,1.025266,0.02797646
5605,1.02125,1.025266,0.02797646
5608,1.015678,1.019716,0.02797646
5610,1.008136,1.011817,0.02797646
5612,1.008136,1.011817,0.02797646
5615,1.001711,1.005415,0.03426402
5617,1.001711,1.005415,0.03426402
5619,0.9970112,1.000733,0.02797646
5622,0.9970112,1.000733,0.02797646
5624,0.9887336,0.9918951,0.03426402
5626,0.9847674,0.9875455,0.03956468
5629,0.9847674,0.9875455,0.03956468
5632,0.9819816,0.9847674,0.03426402
5634,0.9819816,0.9847674,0.03426402
5637,0.9817823,0.98437,0.03956468
5639,0.98238,0.9847674,0.03956468
5641,0.98238,0.9847674,0.03956468
5644,0.9819816,0.9839723,0.04423466
5646,0.9819816,0.9839723,0.04423466
5648,0.9797872,0.9821809,0.03956468
5651,0.9797872,0.9821809,0.03956468
5653,0.9787881,0.9811842,0.03956468
5655,0.9779881,0.9803861,0.04423466
5658,0.9779881,0.9803861,0.04423466
5660,0.977788,0.9801866,0.04423466
5662,0.977788,0.9801866,0.04423466
5665,0.977788,0.9801866,0.03956468
5667,0.977788,0.9801866,0.03956468
5669,0.9751828,0.977788,0.03956468
5671,0.9725708,0.9749822,0.04423466
5675,0.9725708,0.9749822,0.04423466
5677,0.9691444,0.9711614,0.04423466
5679,0.9691444,0.9711614,0.04423466
5682,0.9691444,0.9711614,0.04423466
5684,0.9693463,0.9715644,0.04423466
5686,0.9693463,0.9715644,0.04423466
5689,0.9701535,0.9717657,0.05233916
5691,0.9701535,0.9717657,0.05233916
5693,0.9735762,0.9751828,0.05233916
5696,0.9735762,0.9751828,0.05233916
5698,0.9749822,0.9765865,0.05233916
5700,0.9797872,0.9811842,0.05595291
5703,0.9797872,0.9811842,0.05595291
5705,0.9841712,0.9853634,0.05934703
5707,0.9841712,0.9853634,0.05934703
5710,0.9849661,0.9859589,0.05934703
5712,0.9857605,0.9867525,0.05934703
5714,0.9857605,0.9867525,0.05934703
5718,0.985562,0.9863558,0.05934703
5720,0.985562,0.9863558,0.05934703
5722,0.9853634,0.9859589,0.05934703
5725,0.9853634,0.9859589,0.05934703
5727,0.9859589,0.9867525,0.0656106
5729,0.9873473,0.9879416,0.0656106
5732,0.9873473,0.9879416,0.0656106
5734,0.9879416,0.9881397,0.0656106
5736,0.9879416,0.9881397,0.0656106
5739,0.9881397,0.9889315,0.06255726
5741,0.9853634,0.9859589,0.0656106
5743,0.9853634,0.9859589,0.0656106
5746,0.98437,0.9847674,0.0656106
5748,0.98437,0.9847674,0.0656106
5750,0.9831765,0.9829774,0.06852804
5753,0.9831765,0.9829774,0.06852804
5755,0.9809847,0.9809847,0.06852804
5757,0.9787881,0.9781881,0.06852804
5760,0.9787881,0.9781881,0.06852804
5763,0.9769872,0.9765865,0.06852804
5765,0.9769872,0.9765865,0.06852804
5767,0.9705567,0.9707584,0.0656106
5770,0.9705567,0.9707584,0.0656106
5772,0.9687405,0.9687405,0.0656106
5774,0.9715644,0.9715644,0.05934703
5777,0.9715644,0.9715644,0.05934703
5779,0.972772,0.9729732,0.06255726
5781,0.972772,0.9729732,0.06255726
5784,0.9733753,0.9733753,0.06255726
5786,0.9743798,0.974179,0.06255726
5788,0.9743798,0.974179,0.06255726
5791,0.9747815,0.9749822,0.05595291
5793,0.9747815,0.9749822,0.05595291
5795,0.9749822,0.9755841,0.05595291
5798,0.9749822,0.9755841,0.05595291
5800,0.991303,0.9924868,0.05233916
5803,1.004052,1.006194,0.04845664
5806,1.004052,1.006194,0.04845664
5808,1.005221,1.007165,0.05233916
5810,1.005221,1.007165,0.05233916
5813,1.008136,1.009882,0.04845664
5815,1.020675,1.023164,0.04423466
5817,1.020675,1.023164,0.04423466
5820,1.031735,1.034576,0.04423466
5822,1.031735,1.034576,0.04423466
5824,1.03344,1.036654,0.03956468
5827,1.03344,1.036654,0.03956468
5829,1.027934,1.030786,0.04423466
5831,1.015871,1.018756,0.03956468
5834,1.015871,1.018756,0.03956468
5836,0.9997552,1.002687,0.03956468
5838,0.9997552,1.002687,0.03956468
5840,0.9893272,0.9920924,0.03426402
5843,0.9893272,0.9920924,0.03426402
5846,0.9811842,0.9839723,0.03426402
5848,0.966516,0.9687405,0.03426402
5851,0.966516,0.9687405,0.03426402
5853,0.9600154,0.9620516,0.03426402
5855,0.9600154,0.9620516,0.03426402
5858,0.9549061,0.9569532,0.03426402
5860,0.9759852,0.9783881,0.02797646
5862,0.9759852,0.9783881,0.02797646
5865,0.9841712,0.9867525,0.03426402
5867,0.9841712,0.9867525,0.03426402
5869,0.9952432,0.9975998,0.03426402
5872,0.9952432,0.9975998,0.03426402
5874,1.005804,1.00833,0.02797646
5876,1.022207,1.025075,0.01978234
5879,1.022207,1.025075,0.01978234
5881,1.011237,1.01375,0.01978234
5883,1.011237,1.01375,0.01978234
5886,1.002296,1.004636,0.03426402
5889,0.9952432,0.9974037,0.03426402
5891,0.9952432,0.9974037,0.03426402
5894,0.9743798,0.9761857,0.02797646
5896,0.9743798,0.9761857,0.02797646
5898,0.9669209,0.9687405,0.03426402
5901,0.9669209,0.9687405,0.03426402
5903,0.9571576,0.9587917,0.02797646
5905,0.9431533,0.9443973,0.03426402
5908,0.9431533,0.9443973,0.03426402
5910,0.9379522,0.9389946,0.03956468
5912,0.9379522,0.9389946,0.03956468
5915,0.9339799,0.9348176,0.03426402
5917,0.9304113,0.9310421,0.03956468
5919,0.9304113,0.9310421,0.03956468
5922,0.9289381,0.9295698,0.03956468
5924,0.9289381,0.9295698,0.03956468
5926,0.9325122,0.9335608,0.03426402
5928,0.9325122,0.9335608,0.03426402
5932,0.9379522,0.9385778,0.03426402
5934,0.9383693,0.9394114,0.03426402
5936,0.9383693,0.9394114,0.03426402
5939,0.9389946,0.939828,0.03426402
5941,0.9389946,0.939828,0.03426402
5943,0.9369085,0.9381608,0.03426402
5946,0.9369085,0.9381608,0.03426402
5948,0.9362817,0.9375348,0.02797646
5950,0.9360726,0.9373261,0.02797646
5953,0.9360726,0.9373261,0.02797646
5955,0.9356545,0.9371173,0.02797646
5957,0.9356545,0.9371173,0.02797646
5960,0.9350269,0.9371173,0.01978234
5962,0.9350269,0.9369085,0.02797646
5964,0.9350269,0.9369085,0.02797646
5967,0.9366996,0.9385778,0.02797646
5969,0.9366996,0.9385778,0.02797646
5971,0.9369085,0.9385778,0.01978234
5975,0.9369085,0.9385778,0.01978234
5977,0.9362817,0.9375348,0.02797646
5979,0.9354453,0.9366996,0.01978234
5982,0.9354453,0.9366996,0.01978234
5984,0.9312522,0.9331415,0.01978234
5986,0.9312522,0.9331415,0.01978234
5989,0.9297802,0.9316724,0.02797646
5991,0.9251386,0.9270402,0.01978234
5993,0.9251386,0.9270402,0.01978234
5996,0.9234449,0.9253501,0.02797646
5998,0.9234449,0.9253501,0.02797646
6000,0.9198356,0.9217481,0.02797646
6003,0.9198356,0.9217481,0.02797646
6005,0.9149297,0.916639,0.01978234
6007,0.9119305,0.9134313,0.01978234
6010,0.9119305,0.9134313,0.01978234
6012,0.9095671,0.9112865,0.01978234
6014,0.9095671,0.9112865,0.01978234
6017,0.9242921,0.9264069,0.01978234
6020,0.9379522,0.9406604,0
6022,0.9379522,0.9406604,0
6024,0.9717657,0.9745807,0
6027,0.9717657,0.9745807,0
6029,0.9847674,0.9877436,0
6031,0.9847674,0.9877436,0
6034,0.9803861,0.9833755,0
6036,0.9749822,0.9779881,0
6038,0.9749822,0.9779881,0
6041,0.9614412,0.9642863,0
6043,0.9614412,0.9642863,0
6045,0.9503872,0.9532654,0
6048,0.9503872,0.9532654,0
6050,0.9306217,0.9333511,0
6052,0.9215358,0.9240804,0.01978234
6055,0.9215358,0.9240804,0.01978234
6057,0.9145018,0.9168525,0.01978234
6060,0.9145018,0.9168525,0.01978234
6063,0.9346082,0.9371173,0.01978234
6065,0.9329317,0.9354453,0.01978234
6067,0.9329317,0.9354453,0.01978234
6070,0.9320924,0.9343988,0.01978234
6072,0.9320924,0.9343988,0.01978234
6074,0.9431533,0.9458466,0.01978234
6077,0.9431533,0.9458466,0.01978234
6079,0.9528548,0.9559301,0
6081,0.9612376,0.9646922,0
6084,0.9612376,0.9646922,0
6086,0.9809847,0.9847674,0.01978234
6088,0.9809847,0.9847674,0.01978234
6091,0.9907107,0.9952432,0.01978234
6093,0.9993636,1.003857,0
6095,1.006777,1.011431,0.01978234
6098,0.9944565,0.9989719,0.01978234
6100,0.9944565,0.9989719,0.01978234
6103,0.9845687,0.9889315,0.01978234
6105,0.9845687,0.9889315,0.01978234
6108,0.9829774,0.9875455,0
6110,0.9883377,0.9926839,0
6112,0.9883377,0.9926839,0
6115,0.9926839,0.9972074,0.01978234
6117,0.9926839,0.9972074,0.01978234
6119,1.009106,1.014136,0
6122,1.009106,1.014136,0
6124,1.015293,1.020483,0
6126,1.023738,1.029076,0.01978234
6129,1.030786,1.036277,0
6131,1.03722,1.042677,0
6133,1.03722,1.042677,0
6136,1.042114,1.047732,0
6138,1.054063,1.059618,0
6140,1.054063,1.059618,0
6144,1.059987,1.065878,0
6146,1.059987,1.065878,0
6148,1.070458,1.076292,0
6151,1.070458,1.076292,0
6153,1.075018,1.080646,0
6155,1.078834,1.084442,0
6158,1.078834,1.084442,0
6160,1.082998,1.088944,0
6162,1.082998,1.088944,0
6165,1.085164,1.090739,0
6167,1.086785,1.092711,0
6169,1.086785,1.092711,0
6172,1.087505,1.093248,0.01978234
6174,1.087505,1.093248,0.01978234
6176,1.086425,1.092353,0
6179,1.086425,1.092353,0
6181,1.086245,1.091995,0
6183,1.082275,1.088045,0
6187,1.082275,1.088045,0
6189,1.076655,1.082275,0.01978234
6191,1.076655,1.082275,0.01978234
6193,1.074472,1.080103,0
6196,1.071737,1.077563,0.01978234
6198,1.071737,1.077563,0.01978234
6200,1.071189,1.0772,0
6203,1.071189,1.0772,0
6205,1.070823,1.077018,0
6207,1.070823,1.077018,0
6210,1.067346,1.074472,0
6212,1.066245,1.073561,0
6214,1.066245,1.073561,0
6217,1.067346,1.0752,0
6219,1.067346,1.0752,0
6221,1.067896,1.075928,0
6224,1.067896,1.075928,0
6226,1.037598,1.044927,0
6228,1.02622,1.033251,0.01978234
6232,1.02622,1.033251,0.01978234
6234,1.027173,1.034387,0
6236,1.027173,1.034387,0
6239,1.027173,1.034387,0
6241,1.0151,1.021825,0
6243,1.0151,1.021825,0
6246,0.9954398,1.001515,0
6248,0.9954398,1.001515,0
6250,0.9839723,0.9899204,0
6253,0.9839723,0.9899204,0
6255,0.9661109,0.9713628,0
6257,0.9577706,0.9624583,0.01978234
6260,0.9577706,0.9624583,0.01978234
6262,0.9501812,0.9549061,0.01978234
6264,0.9501812,0.9549061,0.01978234
6267,0.9431533,0.9475003,0.01978234
6269,0.9312522,0.9350269,0.02797646
6272,0.9312522,0.9350269,0.02797646
6275,0.9293592,0.9331415,0.02797646
6277,0.9293592,0.9331415,0.02797646
6279,0.9253501,0.9289381,0.02797646
6281,0.9253501,0.9289381,0.02797646
6284,0.9223848,0.9261956,0.03426402
6286,0.91941,0.9236568,0.03426402
6288,0.91941,0.9236568,0.03426402
6291,0.91941,0.9236568,0.03426402
6293,0.91941,0.9236568,0.03426402
6295,0.91941,0.9236568,0.03426402
6298,0.91941,0.9236568,0.03426402
6300,0.8362648,0.8381346,0.04845664
6302,0.7099674,0.7069291,0.06852804
6305,0.7099674,0.7069291,0.06852804
6307,0.6575991,0.6516207,0.07912937
6309,0.6575991,0.6516207,0.07912937
6312,0.6129363,0.6039315,0.08846933
6315,0.5432066,0.5297108,0.09891172
6317,0.5432066,0.5297108,0.09891172
6320,0.4925778,0.4760123,0.1046783
6322,0.4925778,0.4760123,0.1046783
6324,0.4714689,0.4524074,0.1083524
6327,0.4714689,0.4524074,0.1083524
6329,0.4571402,0.4365593,0.1101434
6331,0.4365593,0.4140146,0.1119058
6334,0.4365593,0.4140146,0.1119058
6336,0.4288719,0.4054182,0.1136409
6338,0.4288719,0.4054182,0.1136409
6341,0.4173099,0.3936644,0.1136409
6343,0.4135417,0.3891652,0.1136409
6345,0.4135417,0.3891652,0.1136409
6348,0.4083038,0.3841043,0.1136409
6350,0.4083038,0.3841043,0.1136409
6352,0.4073442,0.3830841,0.1119058
6355,0.4073442,0.3830841,0.1119058
6358,0.4044518,0.3805216,0.1119058
6360,0.4049353,0.3815487,0.1101434
6363,0.4049353,0.3815487,0.1101434
6365,0.4063823,0.3830841,0.1101434
6367,0.4063823,0.3830841,0.1101434
6369,0.4063823,0.3830841,0.1083524
6372,0.4760123,0.4609765,0.09691329
6374,0.4760123,0.4609765,0.09691329
6376,0.5359538,0.5260038,0.08622923
6379,0.5359538,0.5260038,0.08622923
6381,0.5695826,0.5623221,0.07912937
6383,0.5695826,0.5623221,0.07912937
6386,0.556375,0.5482264,0.08156469
6388,0.5450047,0.5366834,0.08392937
6390,0.5450047,0.5366834,0.08392937
6393,0.6084505,0.6061952,0.06852804
6395,0.6084505,0.6061952,0.06852804
6397,0.6324196,0.6314908,0.06852804
6401,0.6324196,0.6314908,0.06852804
6403,0.608772,0.6061952,0.07661668
6405,0.5855064,0.5804718,0.08392937
6408,0.5855064,0.5804718,0.08392937
6410,0.5855064,0.5804718,0.08392937
6412,0.5855064,0.5804718,0.08392937
6415,0.5654452,0.55778,0.09065409
6417,0.5938025,0.5885065,0.08622923
6419,0.5938025,0.5885065,0.08622923
6422,0.5716401,0.5637122,0.09278741
6424,0.5716401,0.5637122,0.09278741
6426,0.5716401,0.5637122,0.09278741
6429,0.5716401,0.5637122,0.09278741
6431,0.5524929,0.5428462,0.1008706
6433,0.5828267,0.5753932,0.09691329
6436,0.5828267,0.5753932,0.09691329
6438,0.6081289,0.6026341,0.09487279
6440,0.6081289,0.6026341,0.09487279
6444,0.5818186,0.5740312,0.1027921
6446,0.5602303,0.5496522,0.1083524
6448,0.5602303,0.5496522,0.1083524
6450,0.5218958,0.5051297,0.1235407
6453,0.5218958,0.5051297,0.1235407
6455,0.5078341,0.4885893,0.1282043
6457,0.5078341,0.4885893,0.1282043
6460,0.5668277,0.5535544,0.1170339
6462,0.6578966,0.6516207,0.1046783
6464,0.6578966,0.6516207,0.1046783
6467,0.63025,0.6221254,0.1065312
6469,0.63025,0.6221254,0.1065312
6471,0.6498165,0.6437659,0.1046783
6474,0.6849989,0.6815624,0.09691329
6476,0.6849989,0.6815624,0.09691329
6478,0.7151849,0.7138155,0.09065409
6481,0.7151849,0.7138155,0.09065409
6483,0.7763211,0.7778319,0.07912937
6486,0.7763211,0.7778319,0.07912937
6489,0.8006416,0.8038125,0.07132626
6491,0.8455727,0.8504184,0.06255726
6493,0.8455727,0.8504184,0.06255726
6496,0.9189842,0.9261956,0.04845664
6498,0.9189842,0.9261956,0.04845664
6500,0.9571576,0.9657058,0.04423466
6503,0.9571576,0.9657058,0.04423466
6505,1.019524,1.029646,0.02797646
6507,1.042489,1.053134,0.02797646
6510,1.042489,1.053134,0.02797646
6512,1.064041,1.0752,0.01978234
6514,1.064041,1.0752,0.01978234
6517,1.09056,1.102694,0
6519,1.103049,1.115573,0
6521,1.103049,1.115573,0
6524,1.107475,1.120299,0
6526,1.107475,1.120299,0
6529,1.119775,1.132979,0
6532,1.119775,1.132979,0
6534,1.120125,1.133669,0
6536,1.122393,1.135911,0
6538,1.122393,1.135911,0
6541,1.124135,1.137116,0
6543,1.124135,1.137116,0
6545,1.124135,1.1366,0
6548,1.12187,1.133669,0
6550,1.12187,1.133669,0
6552,1.120474,1.131596,0
6555,1.120474,1.131596,0
6557,1.118201,1.129346,0
6559,1.118201,1.129346,0
6562,1.117676,1.128652,0
6564,1.116801,1.127959,-0.01978234
6566,1.116801,1.127959,-0.01978234
6569,1.116625,1.128132,0
6572,1.116625,1.128132,0
6574,1.117851,1.129346,0
6577,1.117851,1.129346,0
6579,1.115047,1.126744,-0.01978234
6581,1.115398,1.127264,0
6584,1.115398,1.127264,0
6586,1.109946,1.12187,-0.01978234
6588,1.109946,1.12187,-0.01978234
6591,1.097001,1.109241,0
6593,1.081008,1.093427,0
6595,1.081008,1.093427,0
6598,1.071189,1.08354,0
6600,1.071189,1.08354,0
6602,1.064041,1.076473,-0.01978234
6605,1.064041,1.076473,-0.01978234
6607,1.058694,1.071006,0
6609,1.058879,1.071189,0
6612,1.058879,1.071189,0
6615,1.060725,1.073014,-0.01978234
6617,1.060725,1.073014,-0.01978234
6620,1.062384,1.074654,-0.01978234
6622,1.058879,1.071006,-0.01978234
6624,1.058879,1.071006,-0.01978234
6626,1.05462,1.067162,-0.01978234
6629,1.05462,1.067162,-0.01978234
6631,1.052205,1.064776,-0.02797646
6633,1.052205,1.064776,-0.02797646
6636,1.047732,1.060541,-0.01978234
6638,1.02641,1.039293,0
6640,1.02641,1.039293,0
6643,1.011817,1.024693,-0.01978234
6645,1.011817,1.024693,-0.01978234
6647,0.9999508,1.01317,-0.01978234
6650,0.992881,1.006194,0
6652,0.992881,1.006194,0
6654,0.9903157,1.003662,0
6658,0.9903157,1.003662,0
6660,0.997992,1.011237,-0.01978234
6662,0.997992,1.011237,-0.01978234
6665,1.005999,1.019332,-0.01978234
6667,1.009106,1.022207,0
6669,1.009106,1.022207,0
6672,1.011817,1.025075,0
6674,1.011817,1.025075,0
6676,1.012011,1.025266,0
6679,1.012011,1.025266,0
6681,1.011044,1.024311,-0.01978234
6683,1.009882,1.023164,0
6686,1.009882,1.023164,0
6688,1.0093,1.02259,-0.01978234
6690,1.0093,1.02259,-0.01978234
6693,1.024693,1.037786,0
6695,1.030596,1.043615,0
6697,1.030596,1.043615,0
6701,1.04399,1.056659,0
6703,1.04399,1.056659,0
6705,1.049225,1.061647,-0.01978234
6708,1.049225,1.061647,-0.01978234
6710,1.05332,1.066061,-0.01978234
6712,1.060171,1.072649,-0.01978234
6714,1.060171,1.072649,-0.01978234
6717,1.062384,1.075018,-0.01978234
6719,1.062384,1.075018,-0.01978234
6721,1.066061,1.07829,-0.01978234
6724,1.067346,1.079559,-0.01978234
6726,1.067346,1.079559,-0.01978234
6728,1.068628,1.080646,0
6731,1.068628,1.080646,0
6733,1.072649,1.084803,0
6735,1.072649,1.084803,0
6738,1.075564,1.087325,0
6740,1.080827,1.092532,0
6743,1.080827,1.092532,0
6746,1.088944,1.100562,0
6748,1.088944,1.100562,0
6750,1.094679,1.106061,0
6753,1.103226,1.114169,0
6755,1.103226,1.114169,0
6757,1.106591,1.117501,0
6760,1.106591,1.117501,0
6762,1.109593,1.120474,0
6764,1.109593,1.120474,0
6767,1.094322,1.104467,0
6769,1.079559,1.088944,0
6771,1.079559,1.088944,0
6774,1.08137,1.090739,0
6776,1.08137,1.090739,0
6778,1.08354,1.092711,0
6781,1.08354,1.092711,0
6784,1.072102,1.080646,0
6786,1.053877,1.062016,0
6789,1.053877,1.062016,0
6791,1.042677,1.050157,0
6793,1.042677,1.050157,0
6796,1.033061,1.040423,0
6798,1.018756,1.025075,0
6800,1.018756,1.025075,0
6802,1.013557,1.019524,0.01978234
6805,1.013557,1.019524,0.01978234
6807,1.009494,1.014907,0.01978234
6809,1.009494,1.014907,0.01978234
6812,1.002296,1.007165,0.02797646
6814,1.000147,1.004442,0.03426402
6816,1.000147,1.004442,0.03426402
6819,0.9956363,0.9997552,0.03426402
6821,0.9956363,0.9997552,0.03426402
6823,0.993472,0.9974037,0.03956468
6827,0.9944565,0.9981881,0.03956468
6829,0.9944565,0.9981881,0.03956468
6831,0.9956363,0.9989719,0.03956468
6834,0.9956363,0.9989719,0.03956468
6836,0.9960293,0.998776,0.04423466
6838,0.9960293,0.998776,0.04423466
6841,0.9960293,0.998776,0.04423466
6843,0.9970112,0.9995593,0.04845664
6845,0.9970112,0.9995593,0.04845664
6848,0.9441901,0.9448116,0.05934703
6850,0.9441901,0.9448116,0.05934703
6852,0.8632076,0.8602557,0.07661668
6855,0.8632076,0.8602557,0.07661668
6857,0.8318071,0.8275619,0.08156469
6859,0.7868362,0.7798419,0.09278741
6862,0.7868362,0.7798419,0.09278741
6864,0.7151849,0.7035998,0.1083524
6866,0.7151849,0.7035998,0.1083524
6870,0.6864257,0.6723125,0.1170339
6872,0.7146374,0.7013714,0.1153499
6874,0.7146374,0.7013714,0.1153499
6877,0.7582139,0.7470343,0.1101434
6879,0.7582139,0.7470343,0.1101434
6881,0.7833468,0.7730374,0.1083524
6884,0.7833468,0.7730374,0.1083524
6886,0.7745547,0.7638705,0.1101434
6888,0.7664279,0.7551107,0.1119058
6890,0.7664279,0.7551107,0.1119058
6893,0.7295417,0.7165515,0.1186941
6895,0.7295417,0.7165515,0.1186941
6897,0.7143636,0.7002546,0.1203313
6900,0.7044336,0.6892704,0.1266688
6902,0.7044336,0.6892704,0.1266688
6904,0.6867107,0.6696879,0.1341704
6907,0.6867107,0.6696879,0.1341704
6909,0.6655847,0.6471007,0.1384764
6912,0.6655847,0.6471007,0.1384764
6915,0.645587,0.6258884,0.1426525
6917,0.6431577,0.6233823,0.1440177
6919,0.6431577,0.6233823,0.1440177
6922,0.6398023,0.6196041,0.14537
6924,0.6398023,0.6196041,0.14537
6926,0.6199199,0.5990517,0.1480375
6929,0.6061952,0.5841681,0.1506579
6931,0.6061952,0.5841681,0.1506579
6933,0.6211812,0.6016592,0.1467098
6936,0.6211812,0.6016592,0.1467098
6938,0.6255757,0.6068404,0.1467098
6940,0.6255757,0.6068404,0.1467098
6943,0.6255757,0.6071628,0.1440177
6945,0.6243232,0.6058724,0.1440177
6947,0.6243232,0.6058724,0.1440177
6950,0.6249498,0.6068404,0.1440177
6952,0.6249498,0.6068404,0.1440177
6955,0.6249498,0.6068404,0.1440177
6958,0.6249498,0.6068404,0.1440177
6960,0.629007,0.6113381,0.1440177
6962,0.6330382,0.6148488,0.1440177
6965,0.6330382,0.6148488,0.1440177
6967,0.6549156,0.6379647,0.1440177
6969,0.6549156,0.6379647,0.1440177
6972,0.6723125,0.6561096,0.1426525
6974,0.7203645,0.7058211,0.1426525
6976,0.7203645,0.7058211,0.1426525
6978,0.7380747,0.7241574,0.1426525
6981,0.7380747,0.7241574,0.1426525
6983,0.7571809,0.7441474,0.1412742
6985,0.7571809,0.7441474,0.1412742
6988,0.7727842,0.7602757,0.1412742
6990,0.7858408,0.7737964,0.1412742
6992,0.7858408,0.7737964,0.1412742
6995,0.8079404,0.7959845,0.1412742
6998,0.8079404,0.7959845,0.1412742
7000,0.8187665,0.8067285,0.1440177
7003,0.8280347,0.8158936,0.1440177
7005,0.8280347,0.8158936,0.1440177
7007,0.8432553,0.8311011,0.14537
7010,0.8432553,0.8311011,0.14537
7012,0.8492672,0.8367326,0.14537
7014,0.8492672,0.8367326,0.14537
7017,0.8554656,0.8432553,0.1467098
7019,0.8609378,0.8488063,0.14537
7021,0.8609378,0.8488063,0.14537
7024,0.8724523,0.8604831,0.14537
7026,0.8724523,0.8604831,0.14537
7028,0.8724523,0.8604831,0.14537
7031,0.8724523,0.8604831,0.14537
7033,0.8724523,0.8604831,0.14537
7035,0.8824874,0.8706562,0.1440177
7038,0.8824874,0.8706562,0.1440177
7041,0.8950371,0.8833739,0.1440177
7043,0.8950371,0.8833739,0.1440177
7046,0.9048218,0.8937243,0.1412742
7048,0.9093519,0.8978747,0.1412742
7050,0.9093519,0.8978747,0.1412742
7053,0.9061184,0.8941622,0.1426525
7055,0.9061184,0.8941622,0.1426525
7057,0.9501812,0.939828,0.1356209
7059,0.9501812,0.939828,0.1356209
7062,0.9893272,0.9799869,0.1297215
7064,1.024884,1.016063,0.1251145
7066,1.024884,1.016063,0.1251145
7069,1.027744,1.018948,0.1251145
7071,1.027744,1.018948,0.1251145
7073,1.073561,1.065694,0.1219466
7076,1.144663,1.137976,0.1153499
7078,1.144663,1.137976,0.1153499
7080,1.193538,1.187786,0.1119058
7084,1.193538,1.187786,0.1119058
7086,1.235431,1.230352,0.1065312
7088,1.235431,1.230352,0.1065312
7091,1.313284,1.308956,0.1027921
7093,1.349152,1.345085,0.1008706
7095,1.349152,1.345085,0.1008706
7098,1.38126,1.377572,0.1008706
7100,1.38126,1.377572,0.1008706
7102,1.442929,1.439263,0.1008706
7105,1.46927,1.465803,0.1008706
7107,1.46927,1.465803,0.1008706
7109,1.4941,1.49056,0.1008706
7112,1.4941,1.49056,0.1008706
7114,1.516848,1.513361,0.1027921
7116,1.516848,1.513361,0.1027921
7119,1.589916,1.58659,0.1065312
7121,1.589916,1.58659,0.1065312
7123,1.589916,1.58659,0.1065312
7127,1.664129,1.660479,0.1119058
7129,1.664129,1.660479,0.1119058
7131,1.695698,1.692117,0.1136409
7134,1.695698,1.692117,0.1136409
7136,1.725444,1.721697,0.1153499
7138,1.758807,1.754685,0.1219466
7141,1.758807,1.754685,0.1219466
7143,1.765692,1.761364,0.1235407
7145,1.765692,1.761364,0.1235407
7147,1.774206,1.769678,0.1282043
7150,1.771667,1.766246,0.1356209
7152,1.771667,1.766246,0.1356209
7154,1.774206,1.768682,0.1384764
7157,1.774206,1.768682,0.1384764
7159,1.769457,1.76303,0.1467098
7161,1.769457,1.76303,0.1467098
7164,1.771667,1.764916,0.1493534
7166,1.77608,1.769235,0.1506579
7169,1.77608,1.769235,0.1506579
7172,1.779163,1.771778,0.1545051
7174,1.779163,1.771778,0.1545051
7176,1.779713,1.771888,0.1607126
7179,1.786846,1.778173,0.1678588
7181,1.786846,1.778173,0.1678588
7183,1.787832,1.778723,0.1724585
7186,1.787832,1.778723,0.1724585
7188,1.790238,1.780812,0.174713
7190,1.790238,1.780812,0.174713
7193,1.787284,1.777182,0.1813082
7195,1.788598,1.778173,0.1845175
7197,1.788598,1.778173,0.1845175
7200,1.786627,1.77575,0.1876719
7202,1.786627,1.77575,0.1876719
7204,1.788488,1.776962,0.1928145
7207,1.786956,1.775088,0.1948336
7209,1.786956,1.775088,0.1948336
7212,1.786956,1.774758,0.1978235
7215,1.786956,1.774758,0.1978235
7217,1.785422,1.772772,0.2027088
7219,1.785422,1.772772,0.2027088
7222,1.784216,1.771225,0.2036718
7224,1.788707,1.775199,0.2065338
7226,1.788707,1.775199,0.2065338
7229,1.793405,1.779603,0.2093567
7231,1.793405,1.779603,0.2093567
7233,1.825635,1.811862,0.2112177
7235,1.825635,1.811862,0.2112177
7238,1.839092,1.825313,0.2121421
7240,1.837389,1.823275,0.2139789
7242,1.837389,1.823275,0.2139789
7245,1.83824,1.82349,0.2176059
7247,1.83824,1.82349,0.2176059
7249,1.844405,1.829811,0.2185032
7252,1.850655,1.836004,0.2193969
7255,1.850655,1.836004,0.2193969
7257,1.865716,1.850972,0.2211734
7260,1.865716,1.850972,0.2211734
7262,1.873775,1.85899,0.2220564
7264,1.873775,1.85899,0.2220564
7267,1.877219,1.862356,0.2220564
7269,1.885125,1.870116,0.2238118
7271,1.885125,1.870116,0.2238118
7274,1.88948,1.874506,0.2255535
7276,1.88948,1.874506,0.2255535
7278,1.893929,1.87899,0.2264194
7281,1.898367,1.88336,0.2272819
7283,1.903206,1.888133,0.2281412
7285,1.907828,1.892999,0.2264194
7288,1.907828,1.892999,0.2264194
7290,1.914075,1.899398,0.2255535
7292,1.914075,1.899398,0.2255535
7296,1.919691,1.905262,0.2255535
7298,1.932696,1.918467,0.2246844
7300,1.932696,1.918467,0.2246844
7303,1.939368,1.92529,0.2238118
7305,1.939368,1.92529,0.2238118
7307,1.894032,1.878573,0.23239
7310,1.894032,1.878573,0.23239
7312,1.852029,1.835151,0.2406627
7314,1.817577,1.799615,0.2470816
7317,1.817577,1.799615,0.2470816
7319,1.847692,1.830025,0.2438933
7321,1.847692,1.830025,0.2438933
7323,1.884398,1.867708,0.2390311
7326,1.914893,1.898986,0.2349025
7328,1.914893,1.898986,0.2349025
7330,1.970104,1.955547,0.2264194
7333,1.970104,1.955547,0.2264194
7335,1.994981,1.981199,0.2220564
7337,1.994981,1.981199,0.2220564
7341,2.037112,2.024584,0.2139789
7343,2.054714,2.042773,0.2102893
7345,2.054714,2.042773,0.2102893
7348,2.069992,2.05852,0.2074791
7350,2.069992,2.05852,0.2074791
7352,2.095925,2.085253,0.2027088
7355,2.106822,2.096392,0.2007689
7357,2.106822,2.096392,0.2007689
7359,2.122002,2.11211,0.1968319
7362,2.122002,2.11211,0.1968319
7364,2.124952,2.115166,0.1958353
7366,2.124952,2.115166,0.1958353
7369,2.128265,2.118679,0.1948336
7371,2.133683,2.124307,0.1928145
7373,2.133683,2.124307,0.1928145
7376,2.136067,2.126793,0.191797
7378,2.136067,2.126793,0.191797
7380,2.138722,2.129552,0.1907741
7384,2.146304,2.137166,0.1907741
7386,2.146304,2.137166,0.1907741
7388,2.150131,2.1411,0.1907741
7391,2.150131,2.1411,0.1907741
7393,2.125872,2.116276,0.1938267
7395,2.125872,2.116276,0.1938267
7398,2.117663,2.107844,0.1938267
7400,2.100868,2.090877,0.1958353
7402,2.100868,2.090877,0.1958353
7405,2.08741,2.07726,0.1968319
7407,2.08741,2.07726,0.1968319
7409,2.057664,2.047079,0.199792
7411,2.057664,2.047079,0.199792
7414,2.047079,2.036343,0.2007689
7416,2.034901,2.024004,0.2007689
7418,2.034901,2.024004,0.2007689
7421,2.017321,2.006231,0.2017412
7424,2.017321,2.006231,0.2017412
7426,2.00896,1.997824,0.2017412
7429,2.002227,1.991151,0.2017412
7431,2.002227,1.991151,0.2017412
7433,1.988299,1.977145,0.2017412
7436,1.988299,1.977145,0.2017412
7438,1.983272,1.972189,0.2017412
7440,1.983272,1.972189,0.2017412
7443,1.9708,1.959746,0.1988102
7445,1.966425,1.955347,0.199792
7447,1.966425,1.955347,0.199792
7450,1.953444,1.942594,0.1978235
7452,1.953444,1.942594,0.1978235
7454,1.94883,1.937954,0.1978235
7457,1.944205,1.933404,0.1978235
7459,1.944205,1.933404,0.1978235
7461,1.937853,1.927017,0.1968319
7464,1.937853,1.927017,0.1968319
7467,1.935125,1.924171,0.1968319
7469,1.935125,1.924171,0.1968319
7472,1.931075,1.9202,0.1978235
7474,1.931582,1.92071,0.1988102
7476,1.931582,1.92071,0.1988102
7479,1.932291,1.921321,0.199792
7481,1.932291,1.921321,0.199792
7483,1.933708,1.922441,0.199792
7486,1.93472,1.923459,0.2017412
7488,1.93472,1.923459,0.2017412
7490,1.935731,1.924171,0.2027088
7493,1.935731,1.924171,0.2027088
7495,1.93563,1.924069,0.2027088
7497,1.93563,1.924069,0.2027088
7499,1.938055,1.926204,0.2036718
7502,1.941082,1.929453,0.2027088
7504,1.941082,1.929453,0.2027088
7506,1.945413,1.933708,0.2027088
7510,1.945413,1.933708,0.2027088
7512,1.95164,1.939973,0.2027088
7514,1.95164,1.939973,0.2027088
7517,1.954646,1.943098,0.2027088
7519,1.958947,1.947625,0.2007689
7521,1.958947,1.947625,0.2007689
7524,1.979124,1.968315,0.1978235
7526,1.979124,1.968315,0.1978235
7528,2.009642,1.999489,0.1928145
7531,2.0147,2.004669,0.1907741
7533,2.0147,2.004669,0.1907741
7535,2.01926,2.009447,0.1897456
7538,2.01926,2.009447,0.1897456
7540,2.023424,2.013826,0.1876719
7542,2.023424,2.013826,0.1876719
7545,2.049277,2.040568,0.1823843
7547,2.065165,2.056903,0.1780411
7549,2.065165,2.056903,0.1780411
7553,2.078861,2.070937,0.1758294
7555,2.078861,2.070937,0.1758294
7557,2.083281,2.075846,0.1713202
7560,2.077825,2.070559,0.1701742
7562,2.077825,2.070559,0.1701742
7564,2.073959,2.066775,0.1678588
7567,2.073959,2.066775,0.1678588
7569,2.050805,2.043635,0.166689
7571,2.050805,2.043635,0.166689
7574,2.042677,2.035574,0.165511
7576,2.020423,2.013534,0.1631294
7578,2.020423,2.013534,0.1631294
7581,2.0112,2.004279,0.1619255
7583,2.0112,2.004279,0.1619255
7585,1.99802,1.99125,0.1607126
7587,1.99802,1.99125,0.1607126
7590,1.993313,1.986526,0.1594904
7592,1.988397,1.981594,0.1607126
7595,1.988397,1.981594,0.1607126
7598,1.978233,1.971296,0.1607126
7600,1.978233,1.971296,0.1607126
7602,1.973281,1.966425,0.1607126
7605,1.969409,1.96244,0.1607126
7607,1.969409,1.96244,0.1607126
7609,1.959446,1.952643,0.1594904
7612,1.959446,1.952643,0.1594904
7614,1.955947,1.949131,0.1582588
7616,1.955947,1.949131,0.1582588
7619,1.951439,1.944608,0.1594904
7621,1.941586,1.93472,0.1582588
7623,1.941586,1.93472,0.1582588
7626,1.936237,1.929655,0.1557664
7628,1.936237,1.929655,0.1557664
7630,1.932189,1.925798,0.1557664
7633,1.927626,1.921117,0.1545051
7635,1.927626,1.921117,0.1545051
7638,1.921219,1.914995,0.1519511
7641,1.921219,1.914995,0.1519511
7643,1.916936,1.910698,0.1519511
7645,1.916936,1.910698,0.1519511
7648,1.913462,1.907212,0.1493534
7650,1.904131,1.898264,0.14537
7652,1.904131,1.898264,0.14537
7655,1.900943,1.895272,0.14537
7657,1.900943,1.895272,0.14537
7659,1.894652,1.888963,0.1440177
7662,1.885748,1.880448,0.1412742
7664,1.885748,1.880448,0.1412742
7666,1.881176,1.875967,0.1384764
7668,1.881176,1.875967,0.1384764
7671,1.877636,1.872521,0.1370561
7673,1.877636,1.872521,0.1370561
7675,1.870325,1.865401,0.1341704
7678,1.867603,1.862881,0.132704
7681,1.867603,1.862881,0.132704
7683,1.865821,1.8612,0.1312212
7686,1.865821,1.8612,0.1312212
7688,1.863091,1.858885,0.1282043
7690,1.863091,1.858885,0.1282043
7693,1.862041,1.857727,0.1266688
7695,1.8612,1.857094,0.1266688
7697,1.8612,1.857094,0.1266688
7700,1.859201,1.855091,0.1251145
7702,1.859201,1.855091,0.1251145
7704,1.858042,1.854036,0.1251145
7707,1.856673,1.852452,0.1251145
7709,1.856673,1.852452,0.1251145
7711,1.854247,1.850232,0.1235407
7714,1.854247,1.850232,0.1235407
7716,1.854774,1.850866,0.1235407
7718,1.854774,1.850866,0.1235407
7721,1.855513,1.851818,0.1203313
7724,1.85604,1.852346,0.1219466
7726,1.85604,1.852346,0.1219466
7729,1.856778,1.852663,0.1235407
7731,1.856778,1.852663,0.1235407
7733,1.858042,1.854036,0.1219466
7736,1.859095,1.854985,0.1219466
7738,1.859095,1.854985,0.1219466
7740,1.862881,1.85878,0.1235407
7743,1.862881,1.85878,0.1235407
7745,1.864037,1.860148,0.1219466
7747,1.864037,1.860148,0.1219466
7750,1.866974,1.863091,0.1219466
7752,1.871162,1.867393,0.1219466
7754,1.871162,1.867393,0.1219466
7756,1.872208,1.868336,0.1219466
7759,1.872208,1.868336,0.1219466
7761,1.872835,1.869069,0.1235407
7763,1.872835,1.869069,0.1235407
7767,1.873462,1.869697,0.1219466
7769,1.874924,1.871058,0.1251145
7771,1.874924,1.871058,0.1251145
7774,1.874924,1.871058,0.1251145
7776,1.874924,1.871058,0.1251145
7778,1.874924,1.871058,0.1251145
7781,1.874297,1.870221,0.1235407
7783,1.874297,1.870221,0.1235407
7785,1.872521,1.868546,0.1251145
7788,1.872521,1.868546,0.1251145
7790,1.871685,1.867498,0.1266688
7792,1.871685,1.867498,0.1266688
7795,1.871058,1.866659,0.1282043
7797,1.868755,1.864246,0.1297215
7799,1.868755,1.864246,0.1297215
7802,1.867184,1.862671,0.1297215
7804,1.867184,1.862671,0.1297215
7806,1.866135,1.861515,0.132704
7810,1.86603,1.86141,0.1312212
7812,1.86603,1.86141,0.1312212
7814,1.867288,1.862671,0.1312212
7817,1.867288,1.862671,0.1312212
7819,1.868441,1.863721,0.1312212
7821,1.868441,1.863721,0.1312212
7824,1.869697,1.865191,0.1312212
7826,1.870639,1.86624,0.1312212
7828,1.870639,1.86624,0.1312212
7831,1.871371,1.866974,0.1297215
7833,1.871371,1.866974,0.1297215
7835,1.871267,1.866554,0.1312212
7838,1.871058,1.86645,0.1312212
7840,1.871058,1.86645,0.1312212
7842,1.870848,1.86645,0.1282043
7844,1.870848,1.86645,0.1282043
7847,1.870639,1.866345,0.1266688
7849,1.870639,1.866345,0.1266688
7852,1.871476,1.867498,0.1251145
7855,1.87179,1.867708,0.1251145
7857,1.87179,1.867708,0.1251145
7859,1.869907,1.865821,0.1251145
7862,1.869907,1.865821,0.1251145
7864,1.868336,1.864351,0.1219466
7866,1.868336,1.864351,0.1219466
7869,1.868336,1.864351,0.1235407
7871,1.868336,1.864351,0.1219466
7873,1.868336,1.864351,0.1219466
7876,1.869069,1.865296,0.1219466
7878,1.869069,1.865296,0.1219466
7880,1.869383,1.865611,0.1203313
7883,1.869593,1.865925,0.1186941
7885,1.869593,1.865925,0.1186941
7887,1.860989,1.8572,0.1219466
7890,1.860989,1.8572,0.1219466
7892,1.85604,1.852135,0.1219466
7895,1.85604,1.852135,0.1219466
7898,1.850338,1.846314,0.1219466
7900,1.84875,1.844829,0.1235407
7902,1.84875,1.844829,0.1235407
7905,1.847585,1.843556,0.1235407
7907,1.847585,1.843556,0.1235407
7909,1.842069,1.838134,0.1235407
7912,1.840156,1.836004,0.1251145
7914,1.840156,1.836004,0.1251145
7916,1.84005,1.836004,0.1235407
7919,1.84005,1.836004,0.1235407
7921,1.839837,1.836004,0.1219466
7923,1.839837,1.836004,0.1219466
7926,1.838347,1.83419,0.1235407
7928,1.836217,1.831949,0.1251145
7930,1.836217,1.831949,0.1251145
7932,1.83419,1.829811,0.1251145
7936,1.83419,1.829811,0.1251145
7938,1.832589,1.828313,0.1282043
7940,1.83387,1.82949,0.1266688
7943,1.83387,1.82949,0.1266688
7945,1.83419,1.829918,0.1266688
7947,1.83419,1.829918,0.1266688
7950,1.837389,1.833123,0.1251145
7952,1.837389,1.833123,0.1251145
7954,1.839731,1.83547,0.1251145
7957,1.844299,1.840262,0.1251145
7959,1.844299,1.840262,0.1251145
7961,1.845996,1.841963,0.1251145
7964,1.845996,1.841963,0.1251145
7966,1.849703,1.845678,0.1266688
7968,1.849703,1.845678,0.1266688
7971,1.854985,1.850761,0.1266688
7973,1.858253,1.853825,0.1266688
7975,1.858253,1.853825,0.1266688
7979,1.860779,1.856567,0.1282043
7981,1.862776,1.858674,0.1282043
7983,1.864561,1.860253,0.1297215
7986,1.86603,1.861515,0.1297215
7988,1.86603,1.861515,0.1297215
7990,1.867498,1.862986,0.1297215
7993,1.867498,1.862986,0.1297215
7995,1.867498,1.863091,0.1297215
7997,1.867498,1.863091,0.1297215
8000,1.869593,1.865086,0.1297215
8002,1.871371,1.866554,0.132704
8004,1.871371,1.866554,0.132704
8007,1.87158,1.866764,0.132704
8009,1.87158,1.866764,0.132704
8011,1.872103,1.867079,0.1341704
8014,1.87158,1.866764,0.1356209
8016,1.87158,1.866764,0.1356209
8018,1.871371,1.86624,0.1356209
8020,1.871371,1.86624,0.1356209
8024,1.87158,1.866554,0.1356209
8026,1.87158,1.866554,0.1356209
8028,1.872103,1.867079,0.1356209
8031,1.873462,1.868546,0.1356209
8033,1.873462,1.868546,0.1356209
8035,1.87555,1.870639,0.1370561
8038,1.87555,1.870639,0.1370561
8040,1.87628,1.871162,0.1370561
8042,1.87628,1.871162,0.1370561
8045,1.876593,1.871371,0.1370561
8047,1.877427,1.872417,0.1370561
8049,1.877427,1.872417,0.1370561
8052,1.878052,1.873148,0.1370561
8054,1.878573,1.873462,0.1356209
8056,1.87899,1.873984,0.1356209
8059,1.879511,1.874506,0.1356209
8061,1.879511,1.874506,0.1356209
8064,1.880968,1.875967,0.1384764
8067,1.880968,1.875967,0.1384764
8069,1.882008,1.87701,0.1384764
8071,1.882008,1.87701,0.1384764
8074,1.88284,1.877531,0.1398823
8076,1.882528,1.877219,0.1398823
8078,1.882528,1.877219,0.1398823
8081,1.882528,1.877219,0.1398823
8083,1.882528,1.877219,0.1398823
8085,1.883048,1.877636,0.1412742
8088,1.883879,1.878365,0.1412742
8090,1.883879,1.878365,0.1412742
8092,1.884191,1.878573,0.1426525
8095,1.884191,1.878573,0.1426525
8097,1.884398,1.878782,0.1440177
8099,1.884398,1.878782,0.1440177
8102,1.886578,1.880656,0.1440177
8104,1.887304,1.881384,0.14537
8107,1.887304,1.881384,0.14537
8109,1.888133,1.882112,0.1480375
8112,1.888133,1.882112,0.1480375
8114,1.888963,1.882944,0.1467098
8116,1.888548,1.882528,0.1480375
8119,1.888548,1.882528,0.1480375
8121,1.887097,1.880968,0.1493534
8123,1.887097,1.880968,0.1493534
8126,1.886059,1.879823,0.1506579
8128,1.886059,1.879823,0.1506579
8130,1.883256,1.876906,0.1506579
8133,1.881592,1.875237,0.1506579
8135,1.881592,1.875237,0.1506579
8137,1.880136,1.87388,0.1506579
8140,1.880136,1.87388,0.1506579
8142,1.877114,1.870744,0.1506579
8144,1.877114,1.870744,0.1506579
8147,1.876176,1.869802,0.1519511
8150,1.875341,1.86886,0.1506579
8152,1.875341,1.86886,0.1506579
8155,1.875132,1.86865,0.1519511
8157,1.875132,1.86865,0.1519511
8159,1.875863,1.869383,0.1519511
8162,1.876906,1.870325,0.1532334
8164,1.876906,1.870325,0.1532334
8166,1.878678,1.871999,0.1532334
8169,1.878678,1.871999,0.1532334
8171,1.881176,1.874506,0.1545051
8173,1.881176,1.874506,0.1545051
8176,1.894239,1.887719,0.1532334
8178,1.905262,1.898676,0.1532334
8180,1.905262,1.898676,0.1532334
8183,1.913155,1.906494,0.1557664
8185,1.913155,1.906494,0.1557664
8187,1.916425,1.909571,0.1557664
8190,1.916936,1.910084,0.1582588
8193,1.916936,1.910084,0.1582588
8195,1.918671,1.91162,0.1594904
8197,1.918671,1.91162,0.1594904
8200,1.916323,1.909161,0.1582588
8202,1.916323,1.909161,0.1582588
8204,1.914893,1.907623,0.1594904
8207,1.925086,1.918161,0.1594904
8209,1.925086,1.918161,0.1594904
8211,1.934821,1.927931,0.1582588
8214,1.934821,1.927931,0.1582588
8216,1.943198,1.936338,0.1582588
8218,1.94209,1.935428,0.1570175
8221,1.94209,1.935428,0.1570175
8223,1.957248,1.950737,0.1557664
8225,1.957248,1.950737,0.1557664
8228,1.963437,1.956948,0.1557664
8230,1.963437,1.956948,0.1557664
8232,1.971693,1.96533,0.1557664
8236,1.984654,1.97853,0.1519511
8238,1.984654,1.97853,0.1519511
8240,1.991643,1.985738,0.1519511
8243,1.991643,1.985738,0.1519511
8245,1.997628,1.991839,0.1493534
8247,1.997628,1.991839,0.1493534
8250,2.007206,2.001641,0.1480375
8252,2.011102,2.005548,0.1480375
8254,2.011102,2.005548,0.1480375
8257,2.014506,2.009058,0.14537
8259,2.014506,2.009058,0.14537
8261,2.016933,2.011492,0.14537
8264,2.01926,2.014117,0.14537
8266,2.01926,2.014117,0.14537
8268,2.021876,2.016836,0.1440177
8271,2.021876,2.016836,0.1440177
8273,2.022747,2.017612,0.1440177
8275,2.022747,2.017612,0.1440177
8278,2.023617,2.018388,0.1440177
8281,2.025551,2.020423,0.1426525
8283,2.025551,2.020423,0.1426525
8285,2.026227,2.021392,0.1426525
8288,2.026227,2.021392,0.1426525
8290,2.025937,2.021198,0.1426525
8292,2.025261,2.020423,0.1426525
8295,2.025261,2.020423,0.1426525
8297,2.024874,2.02023,0.1412742
8299,2.024874,2.02023,0.1412742
8302,1.999195,1.994,0.1426525
8304,1.999195,1.994,0.1426525
8306,1.989775,1.984555,0.1440177
8309,1.98347,1.978233,0.1440177
8311,1.98347,1.978233,0.1440177
8313,1.983766,1.97853,0.1440177
8316,1.983766,1.97853,0.1440177
8318,1.983865,1.978728,0.14537
8321,1.983865,1.978728,0.14537
8324,1.983667,1.97853,0.1440177
8326,1.975065,1.969608,0.14537
8328,1.975065,1.969608,0.14537
8331,1.968812,1.963338,0.1480375
8333,1.968812,1.963338,0.1480375
8335,1.969409,1.963836,0.1493534
8338,1.969608,1.963936,0.1493534
8340,1.969608,1.963936,0.1493534
8342,1.97942,1.973578,0.1493534
8345,1.97942,1.973578,0.1493534
8347,1.98268,1.976848,0.1506579
8349,1.98268,1.976848,0.1506579
8352,1.987117,1.981397,0.1506579
8354,1.995177,1.989381,0.1519511
8356,1.995177,1.989381,0.1519511
8359,1.998705,1.99292,0.1506579
8361,1.998705,1.99292,0.1506579
8364,2.005255,1.999489,0.1519511
8366,2.008376,2.002423,0.1519511
8369,2.008376,2.002423,0.1519511
8371,2.010519,2.004767,0.1506579
8373,2.012853,2.007206,0.1519511
8376,2.0147,2.008863,0.1532334
8378,2.0147,2.008863,0.1532334
8380,2.015962,2.010226,0.1506579
8383,2.016739,2.0112,0.1506579
8385,2.016739,2.0112,0.1506579
8387,2.016933,2.011395,0.1506579
8390,2.016933,2.011395,0.1506579
8392,2.015671,2.010324,0.1480375
8394,2.013826,2.008376,0.1480375
8397,2.013826,2.008376,0.1480375
8399,2.01227,2.006816,0.14537
8401,2.01227,2.006816,0.14537
8404,2.010713,2.005645,0.14537
8407,2.010713,2.005645,0.14537
8409,1.982285,1.977046,0.1440177
8412,1.971395,1.966226,0.1426525
8414,1.971395,1.966226,0.1426525
8416,1.94199,1.936944,0.1426525
8419,1.94199,1.936944,0.1426525
8421,1.93067,1.925493,0.1412742
8423,1.93067,1.925493,0.1412742
8426,1.905365,1.900325,0.1384764
8428,1.895375,1.890412,0.1384764
8430,1.895375,1.890412,0.1384764
8433,1.884087,1.878886,0.1398823
8435,1.884087,1.878886,0.1398823
