time,turnedAngle,pitchAngle,yawAngle
82,0.7287365,-0.3397734,-0.6667597
0,0.7287365,-0.3397734,-0.6667597
1,0.7287365,-0.3397734,-0.6667597
2,0.7512136,-0.3609945,-0.6812752
4,0.7512136,-0.3609945,-0.6812752
5,0.7512136,-0.3609945,-0.6812752
7,0.7512136,-0.3609945,-0.6812752
8,0.7915472,-0.4015385,-0.7049889
10,0.7915472,-0.4015385,-0.7049889
12,0.7991739,-0.4140146,-0.7060983
14,0.7991739,-0.4140146,-0.7060983
16,0.8072135,-0.4256662,-0.707759
19,0.8072135,-0.4256662,-0.707759
21,0.8170919,-0.4445539,-0.7074825
23,0.8170919,-0.4445539,-0.7074825
25,0.8204377,-0.4524074,-0.7058211
27,0.8204377,-0.4524074,-0.7058211
29,0.7370135,-0.3669084,-0.660568
32,0.6702721,-0.2927522,-0.6246366
34,0.6702721,-0.2927522,-0.6246366
36,0.6196041,-0.235734,-0.5951191
38,0.6196041,-0.235734,-0.5951191
40,0.501241,-0.1153499,-0.509757
43,0.501241,-0.1153499,-0.509757
46,0.4722982,0.1251145,-0.4780633
48,0.4722982,0.1251145,-0.4780633
50,0.4511079,0.1690205,-0.4410186
52,0.4511079,0.1690205,-0.4410186
54,0.4498048,0.272681,-0.3800071
56,0.4498048,0.272681,-0.3800071
58,0.4601268,0.3189811,-0.3560827
61,0.4865827,0.3896677,-0.3165179
63,0.4865827,0.3896677,-0.3165179
65,0.4996771,0.4173099,-0.301316
67,0.4996771,0.4173099,-0.301316
69,0.5211454,0.4592754,-0.2755364
71,0.5211454,0.4592754,-0.2755364
74,0.5297108,0.4747775,-0.2639296
76,0.5297108,0.4747775,-0.2639296
78,0.5385033,0.4901886,-0.2548778
80,0.5385033,0.4901886,-0.2548778
82,0.5503638,0.5120549,-0.235734
84,0.5503638,0.5120549,-0.235734
88,0.5570779,0.5226451,-0.2281412
90,0.5626699,0.5352231,-0.2130625
92,0.5626699,0.5352231,-0.2130625
94,0.5671728,0.5424856,-0.2065338
96,0.5671728,0.5424856,-0.2065338
98,0.5702693,0.5471546,-0.2007689
100,0.5702693,0.5471546,-0.2007689
103,0.5787839,0.5598809,-0.1897456
105,0.5787839,0.5598809,-0.1897456
107,0.5824909,0.5654452,-0.183454
109,0.5914913,0.5777687,-0.1735894
112,0.5914913,0.5777687,-0.1735894
114,0.5934729,0.5811456,-0.1678588
116,0.5934729,0.5811456,-0.1678588
118,0.6006827,0.5898349,-0.1607126
121,0.6006827,0.5898349,-0.1607126
123,0.6013339,0.591822,-0.1557664
125,0.6013339,0.591822,-0.1557664
128,0.6032831,0.5941319,-0.1519511
131,0.5934729,0.5861744,-0.14537
133,0.5934729,0.5861744,-0.14537
135,0.591822,0.5855064,-0.1426525
137,0.591822,0.5855064,-0.1426525
140,0.587175,0.5821548,-0.1384764
142,0.587175,0.5821548,-0.1384764
144,0.5868416,0.5821548,-0.1370561
146,0.5794597,0.5760729,-0.132704
149,0.5794597,0.5760729,-0.132704
151,0.5784457,0.5757331,-0.1297215
153,0.5784457,0.5757331,-0.1297215
155,0.57743,0.5757331,-0.1266688
158,0.5777687,0.5764125,-0.1235407
160,0.5784457,0.5781073,-0.1235407
162,0.5784457,0.5781073,-0.1235407
164,0.5784457,0.5791218,-0.1186941
166,0.5804718,0.5824909,-0.1153499
169,0.5804718,0.5824909,-0.1153499
172,0.5804718,0.5824909,-0.1136409
174,0.5804718,0.5824909,-0.1136409
176,0.5811456,0.5831623,-0.1136409
179,0.5811456,0.5831623,-0.1136409
181,0.5808088,0.5841681,-0.1101434
183,0.5808088,0.5841681,-0.1101434
185,0.5814822,0.5841681,-0.1101434
188,0.5794597,0.5814822,-0.1119058
190,0.5794597,0.5814822,-0.1119058
192,0.577091,0.5804718,-0.1101434
194,0.577091,0.5804718,-0.1101434
197,0.5760729,0.5787839,-0.1101434
199,0.5760729,0.5787839,-0.1101434
201,0.5760729,0.5787839,-0.1083524
203,0.5794597,0.5814822,-0.1101434
206,0.5794597,0.5814822,-0.1101434
208,0.5858405,0.5875081,-0.1119058
210,0.5858405,0.5875081,-0.1119058
212,0.5878411,0.589503,-0.1119058
216,0.5878411,0.589503,-0.1119058
218,0.5921526,0.5928131,-0.1153499
220,0.5921526,0.5928131,-0.1153499
222,0.5908293,0.5901666,-0.1186941
225,0.5891711,0.5875081,-0.1235407
227,0.5891711,0.5875081,-0.1235407
229,0.5885065,0.5858405,-0.1282043
231,0.5885065,0.5858405,-0.1282043
233,0.5881739,0.583833,-0.1312212
236,0.5881739,0.583833,-0.1312212
238,0.5885065,0.5828267,-0.1370561
240,0.5885065,0.5828267,-0.1370561
242,0.589503,0.5828267,-0.1440177
245,0.5878411,0.5794597,-0.1493534
247,0.5878411,0.5794597,-0.1493534
249,0.5861744,0.577091,-0.1532334
251,0.5861744,0.577091,-0.1532334
254,0.5834977,0.5719823,-0.1631294
257,0.5834977,0.5719823,-0.1631294
259,0.5804718,0.5668277,-0.1701742
261,0.5784457,0.5640592,-0.174713
264,0.5784457,0.5640592,-0.174713
266,0.577091,0.5609285,-0.1791368
268,0.577091,0.5609285,-0.1791368
270,0.5767518,0.5591815,-0.1823843
273,0.5736903,0.5546138,-0.1876719
275,0.5719823,0.5514293,-0.191797
277,0.5719823,0.5514293,-0.191797
279,0.5709552,0.5489398,-0.1958353
282,0.5733491,0.5485832,-0.2046302
284,0.5733491,0.5485832,-0.2046302
286,0.5747126,0.5485832,-0.20842
288,0.5747126,0.5485832,-0.20842
291,0.5787839,0.5503638,-0.2130625
293,0.5811456,0.5524929,-0.2167048
295,0.5881739,0.5574291,-0.2211734
297,0.5881739,0.5574291,-0.2211734
300,0.5941319,0.5619739,-0.2264194
303,0.6221254,0.5888388,-0.23239
305,0.6221254,0.5888388,-0.23239
307,0.6416347,0.607807,-0.2349025
309,0.6416347,0.607807,-0.2349025
312,0.5951191,0.5355885,-0.2818553
314,0.5951191,0.5355885,-0.2818553
316,0.5517841,0.463094,-0.3202056
318,0.5230194,0.4029978,-0.3516591
321,0.5230194,0.4029978,-0.3516591
323,0.5467969,0.4279585,-0.3566318
325,0.5467969,0.4279585,-0.3566318
327,0.5560232,0.4374548,-0.3593647
330,0.5256317,0.3636945,-0.3946573
332,0.509757,0.302612,-0.4252063
334,0.509757,0.302612,-0.4252063
336,0.5031891,0.2517883,-0.4511079
339,0.5124369,0.1219466,-0.513962
342,0.5124369,0.1219466,-0.513962
344,0.5311863,0.09487279,-0.5395923
346,0.5311863,0.09487279,-0.5395923
349,0.5574291,-0.1083524,-0.564406
351,0.5574291,-0.1083524,-0.564406
353,0.612617,-0.1813082,-0.6036074
355,0.6391903,-0.2176059,-0.6189722
357,0.6391903,-0.2176059,-0.6189722
360,0.6649964,-0.2517883,-0.6333472
362,0.6649964,-0.2517883,-0.6333472
364,0.7047113,-0.3077414,-0.6513204
366,0.7047113,-0.3077414,-0.6513204
369,0.7241574,-0.3333784,-0.6599753
371,0.7241574,-0.3333784,-0.6599753
373,0.7462481,-0.3615361,-0.6696879
375,0.7587299,-0.3758652,-0.6752167
378,0.7587299,-0.3758652,-0.6752167
380,0.7710097,-0.3906707,-0.680413
382,0.7710097,-0.3906707,-0.680413
385,0.7795909,-0.4010509,-0.6844273
388,0.7795909,-0.4010509,-0.6844273
390,0.7790887,-0.3951527,-0.6864257
392,0.7790887,-0.3951527,-0.6864257
394,0.7850935,-0.3951527,-0.6926687
397,0.7813459,-0.3856296,-0.6935157
399,0.7813459,-0.3856296,-0.6935157
401,0.7808449,-0.3805216,-0.6952065
403,0.7808449,-0.3805216,-0.6952065
406,0.7755645,-0.365305,-0.697174
408,0.7755645,-0.365305,-0.697174
410,0.7765731,-0.3636945,-0.6991359
412,0.770502,-0.3494264,-0.6991359
415,0.770502,-0.3494264,-0.6991359
417,0.7707559,-0.3466151,-0.7005339
419,0.7707559,-0.3466151,-0.7005339
421,0.7712635,-0.3432113,-0.7027649
423,0.7712635,-0.3432113,-0.7027649
427,0.7720242,-0.3414966,-0.7038778
429,0.7720242,-0.3414966,-0.7038778
431,0.7684676,-0.3357179,-0.7030433
433,0.7674484,-0.332791,-0.7038778
436,0.7674484,-0.332791,-0.7038778
438,0.7666831,-0.3316129,-0.7035998
440,0.7666831,-0.3316129,-0.7035998
442,0.7677034,-0.3322025,-0.7047113
445,0.7677034,-0.3322025,-0.7047113
447,0.7677034,-0.3322025,-0.7055438
449,0.7677034,-0.3322025,-0.7055438
451,0.7674484,-0.3304307,-0.7058211
454,0.7671934,-0.3292442,-0.7060983
456,0.7671934,-0.3292442,-0.7060983
458,0.7669383,-0.329838,-0.7055438
460,0.7669383,-0.329838,-0.7055438
463,0.7661725,-0.3274564,-0.7060983
465,0.7661725,-0.3274564,-0.7060983
467,0.7659171,-0.3256589,-0.7066523
470,0.7654059,-0.3226406,-0.7074825
473,0.7654059,-0.3226406,-0.7074825
475,0.7651502,-0.3214254,-0.7080355
477,0.7651502,-0.3214254,-0.7080355
479,0.7631016,-0.3177519,-0.707759
482,0.7631016,-0.3177519,-0.707759
484,0.7636142,-0.3146578,-0.7096917
486,0.7636142,-0.3146578,-0.7096917
488,0.7620752,-0.3102743,-0.7096917
490,0.762332,-0.3077414,-0.7113441
493,0.762332,-0.3077414,-0.7113441
495,0.7602757,-0.2993615,-0.7129927
497,0.7602757,-0.2993615,-0.7129927
499,0.7592455,-0.2934199,-0.7146374
502,0.7592455,-0.2934199,-0.7146374
504,0.7597608,-0.2859903,-0.717643
506,0.7597608,-0.2859903,-0.717643
508,0.7597608,-0.2804634,-0.7203645
512,0.760533,-0.2690692,-0.7249676
514,0.760533,-0.2690692,-0.7249676
516,0.7610474,-0.2646699,-0.7273927
518,0.7610474,-0.2646699,-0.7273927
521,0.762332,-0.2609472,-0.7298098
523,0.762332,-0.2609472,-0.7298098
525,0.7636142,-0.25101,-0.7348864
527,0.7646385,-0.2478722,-0.7370135
530,0.7646385,-0.2478722,-0.7370135
532,0.7651502,-0.2414744,-0.7399282
534,0.7661725,-0.2365626,-0.742568
536,0.7692311,-0.2298502,-0.7472962
539,0.7692311,-0.2298502,-0.7472962
541,0.7720242,-0.2255535,-0.751474
543,0.7720242,-0.2255535,-0.751474
545,0.7745547,-0.2220564,-0.7548515
548,0.7815963,-0.2158,-0.7636142
550,0.7815963,-0.2158,-0.7636142
552,0.7840959,-0.2158,-0.7666831
555,0.7840959,-0.2158,-0.7666831
557,0.7888232,-0.2046302,-0.7735435
560,0.7888232,-0.2046302,-0.7735435
562,0.7908052,-0.2017412,-0.7765731
564,0.7908052,-0.2017412,-0.7765731
566,0.7957386,-0.1978235,-0.7828471
569,0.7981939,-0.1968319,-0.7853427
571,0.7981939,-0.1968319,-0.7853427
573,0.8050289,-0.1907741,-0.7940154
575,0.8050289,-0.1907741,-0.7940154
578,0.8079404,-0.1876719,-0.7974581
580,0.8079404,-0.1876719,-0.7974581
582,0.811324,-0.1845175,-0.8016186
584,0.81781,-0.1780411,-0.8096339
587,0.81781,-0.1780411,-0.8096339
589,0.8204377,-0.1735894,-0.8132511
591,0.8204377,-0.1735894,-0.8132511
593,0.8259051,-0.165511,-0.8201992
596,0.8259051,-0.165511,-0.8201992
599,0.8287433,-0.1619255,-0.82377
601,0.8287433,-0.1619255,-0.82377
603,0.8311011,-0.1582588,-0.8268523
606,0.8336869,-0.1545051,-0.8325126
608,0.8360308,-0.1519511,-0.8325126
610,0.8381346,-0.1480375,-0.8355626
612,0.8381346,-0.1480375,-0.8355626
615,0.8402332,-0.14537,-0.8381346
617,0.8402332,-0.14537,-0.8381346
619,0.8439512,-0.1440177,-0.8416294
621,0.8464977,-0.1426525,-0.8444148
623,0.8464977,-0.1426525,-0.8444148
626,0.8485757,-0.1412742,-0.8467289
628,0.8485757,-0.1412742,-0.8467289
630,0.8536337,-0.1412742,-0.8515682
632,0.8536337,-0.1412742,-0.8515682
635,0.8556943,-0.1412742,-0.8536337
637,0.8556943,-0.1412742,-0.8536337
640,0.8575217,-0.1384764,-0.8559229
642,0.861165,-0.1384764,-0.8598006
645,0.861165,-0.1384764,-0.8598006
647,0.8627541,-0.1384764,-0.8609378
649,0.8627541,-0.1384764,-0.8609378
651,0.8654715,-0.1412742,-0.8634343
654,0.8654715,-0.1412742,-0.8634343
656,0.8681804,-0.1398823,-0.8659236
658,0.8681804,-0.1398823,-0.8659236
660,0.8702065,-0.1398823,-0.867955
663,0.8717791,-0.1412742,-0.8695317
665,0.8717791,-0.1412742,-0.8695317
667,0.8715547,-0.1398823,-0.8695317
669,0.8715547,-0.1398823,-0.8695317
672,0.8708809,-0.1426525,-0.8688563
674,0.8708809,-0.1426525,-0.8688563
676,0.8704314,-0.1440177,-0.8681804
678,0.8690815,-0.1426525,-0.8666012
681,0.8690815,-0.1426525,-0.8666012
684,0.8666012,-0.1440177,-0.8641139
686,0.8666012,-0.1440177,-0.8641139
688,0.8652454,-0.1440177,-0.8629809
690,0.8652454,-0.1440177,-0.8629809
693,0.8634343,-0.14537,-0.861165
695,0.8634343,-0.14537,-0.861165
697,0.8616194,-0.1412742,-0.8595729
699,0.8604831,-0.1412742,-0.858206
702,0.8604831,-0.1412742,-0.858206
704,0.8570652,-0.1398823,-0.8550079
706,0.8570652,-0.1398823,-0.8550079
708,0.8554656,-0.1412742,-0.8534044
711,0.8554656,-0.1412742,-0.8534044
713,0.8529457,-0.1398823,-0.8511084
715,0.8529457,-0.1398823,-0.8511084
717,0.8494976,-0.1398823,-0.8481144
720,0.8478836,-0.1370561,-0.8462666
722,0.8478836,-0.1370561,-0.8462666
724,0.8467289,-0.1398823,-0.8448781
727,0.8467289,-0.1398823,-0.8448781
730,0.8437192,-0.1426525,-0.8416294
732,0.8437192,-0.1426525,-0.8416294
734,0.8425589,-0.1426525,-0.8400003
736,0.8411642,-0.14537,-0.8386015
739,0.8411642,-0.14537,-0.8386015
741,0.8397673,-0.1467098,-0.8364988
743,0.8397673,-0.1467098,-0.8364988
745,0.8357967,-0.1519511,-0.8315719
748,0.8357967,-0.1519511,-0.8315719
750,0.8334522,-0.1557664,-0.8287433
752,0.8334522,-0.1557664,-0.8287433
754,0.8315719,-0.1582588,-0.8266156
756,0.8303944,-0.1607126,-0.8244823
759,0.8303944,-0.1607126,-0.8244823
761,0.8266156,-0.1631294,-0.8201992
763,0.8266156,-0.1631294,-0.8201992
765,0.8228193,-0.165511,-0.8161334
769,0.8228193,-0.165511,-0.8161334
771,0.8218675,-0.1690205,-0.8144533
773,0.8218675,-0.1690205,-0.8144533
775,0.8209146,-0.1724585,-0.812529
778,0.8192443,-0.1780411,-0.8101172
780,0.8192443,-0.1780411,-0.8101172
782,0.8185275,-0.1802258,-0.8086666
784,0.8185275,-0.1802258,-0.8086666
787,0.8170919,-0.1823843,-0.8064859
789,0.8170919,-0.1823843,-0.8064859
791,0.8170919,-0.1823843,-0.8064859
793,0.8158936,-0.1823843,-0.8052719
796,0.8158936,-0.1823843,-0.8052719
798,0.814213,-0.1823843,-0.8030819
800,0.814213,-0.1823843,-0.8030819
802,0.8127698,-0.1855749,-0.8013745
805,0.8127698,-0.1855749,-0.8013745
807,0.8089085,-0.1876719,-0.7972127
809,0.8089085,-0.1876719,-0.7972127
812,0.8060005,-0.1887116,-0.7940154
814,0.8042993,-0.1887116,-0.7922885
817,0.8042993,-0.1907741,-0.7905577
819,0.8021067,-0.191797,-0.7895671
821,0.8021067,-0.191797,-0.7895671
823,0.7991739,-0.1938267,-0.7860898
826,0.7991739,-0.1938267,-0.7860898
828,0.7972127,-0.1948336,-0.7835966
830,0.7959845,-0.1938267,-0.7828471
832,0.7959845,-0.1938267,-0.7828471
835,0.7957386,-0.1938267,-0.782347
837,0.7957386,-0.1938267,-0.782347
839,0.7957386,-0.1928145,-0.7825971
841,0.7957386,-0.1928145,-0.7825971
844,0.7957386,-0.1928145,-0.7825971
846,0.7957386,-0.1928145,-0.7825971
848,0.7959845,-0.191797,-0.7833468
850,0.796476,-0.1887116,-0.7840959
854,0.796476,-0.1887116,-0.7840959
856,0.7981939,-0.1907741,-0.7858408
858,0.7981939,-0.1907741,-0.7858408
860,0.8003972,-0.191797,-0.7880787
863,0.8003972,-0.191797,-0.7880787
865,0.8013745,-0.191797,-0.7890712
867,0.8013745,-0.191797,-0.7890712
869,0.8030819,-0.1928145,-0.7908052
872,0.8045425,-0.1907741,-0.7925354
874,0.8045425,-0.1907741,-0.7925354
876,0.8057577,-0.1907741,-0.7940154
878,0.8057577,-0.1907741,-0.7940154
880,0.8079404,-0.1897456,-0.7967216
883,0.8079404,-0.1897456,-0.7967216
885,0.811324,-0.1866263,-0.800886
887,0.8149337,-0.183454,-0.8050289
889,0.8149337,-0.183454,-0.8050289
892,0.81781,-0.1813082,-0.8086666
894,0.81781,-0.1813082,-0.8086666
897,0.8225815,-0.1791368,-0.8139727
899,0.8225815,-0.1791368,-0.8139727
902,0.8294513,-0.1780411,-0.8213912
904,0.8294513,-0.1780411,-0.8213912
906,0.8341562,-0.1758294,-0.8268523
908,0.8413968,-0.1735894,-0.8343908
911,0.8413968,-0.1735894,-0.8343908
913,0.8464977,-0.1701742,-0.8406988
915,0.8464977,-0.1701742,-0.8406988
917,0.8501883,-0.1643245,-0.8455727
920,0.8501883,-0.1643245,-0.8455727
922,0.8556943,-0.1557664,-0.8524867
924,0.8556943,-0.1557664,-0.8524867
926,0.8575217,-0.1532334,-0.8550079
929,0.8613922,-0.14537,-0.8602557
931,0.8613922,-0.14537,-0.8602557
933,0.8634343,-0.1412742,-0.8627541
935,0.8634343,-0.1412742,-0.8627541
939,0.8670527,-0.1341704,-0.8672784
941,0.8670527,-0.1341704,-0.8672784
943,0.8684058,-0.1297215,-0.8693066
945,0.8706562,-0.1251145,-0.872228
947,0.8706562,-0.1251145,-0.872228
950,0.8740209,-0.1186941,-0.8762568
952,0.8740209,-0.1186941,-0.8762568
954,0.8775957,-0.1219466,-0.8798226
956,0.8775957,-0.1219466,-0.8798226
959,0.8802673,-0.1219466,-0.8824874
961,0.8802673,-0.1219466,-0.8824874
963,0.8842595,-0.1186941,-0.8862489
965,0.8853652,-0.1153499,-0.8877931
968,0.8871316,-0.1170339,-0.8895546
970,0.8880135,-0.1153499,-0.8906538
972,0.8880135,-0.1153499,-0.8906538
974,0.8893346,-0.1153499,-0.8917516
977,0.8893346,-0.1153499,-0.8917516
979,0.8895546,-0.1119058,-0.8924097
982,0.8895546,-0.1119058,-0.8924097
984,0.8893346,-0.1119058,-0.8921905
987,0.8888945,-0.1101434,-0.8917516
989,0.8888945,-0.1101434,-0.8917516
991,0.8888945,-0.1101434,-0.8917516
993,0.8888945,-0.1101434,-0.8917516
996,0.8888945,-0.1101434,-0.8917516
998,0.8888945,-0.1101434,-0.8917516
1000,0.8871316,-0.1083524,-0.8902143
1002,0.8860281,-0.1101434,-0.8891146
1005,0.8860281,-0.1101434,-0.8891146
1007,0.8853652,-0.1101434,-0.8884541
1009,0.8853652,-0.1101434,-0.8884541
1012,0.8844808,-0.1101434,-0.8877931
1014,0.8844808,-0.1101434,-0.8877931
1016,0.8838168,-0.1136409,-0.8866904
1019,0.8838168,-0.1153499,-0.8862489
1021,0.8838168,-0.1153499,-0.8862489
1024,0.8802673,-0.1251145,-0.8816
1027,0.8802673,-0.1251145,-0.8816
1029,0.8791551,-0.1282043,-0.8793777
1031,0.8749159,-0.1356209,-0.8740209
1034,0.8749159,-0.1356209,-0.8740209
1036,0.8731248,-0.1398823,-0.872228
1038,0.8731248,-0.1398823,-0.872228
1041,0.8690815,-0.1440177,-0.8672784
1043,0.8690815,-0.1440177,-0.8672784
1045,0.8600281,-0.1480375,-0.8575217
1048,0.8556943,-0.1506579,-0.8524867
1050,0.8556943,-0.1506579,-0.8524867
1052,0.8522572,-0.1519511,-0.8488063
1054,0.8522572,-0.1519511,-0.8488063
1057,0.8430232,-0.1607126,-0.8376676
1059,0.8395343,-0.1643245,-0.8336869
1061,0.8395343,-0.1643245,-0.8336869
1064,0.8320423,-0.1724585,-0.8242449
1067,0.8320423,-0.1724585,-0.8242449
1069,0.8294513,-0.1758294,-0.8206762
1072,0.8294513,-0.1758294,-0.8206762
1074,0.8201992,-0.1855749,-0.8093922
1076,0.8166127,-0.1887116,-0.8055148
1079,0.8166127,-0.1887116,-0.8055148
1081,0.8079404,-0.1958353,-0.7947544
1083,0.8079404,-0.1958353,-0.7947544
1086,0.8050289,-0.1988102,-0.7910526
1088,0.8050289,-0.1988102,-0.7910526
1090,0.8011303,-0.2027088,-0.7863387
1093,0.7959845,-0.2065338,-0.7795909
1095,0.7959845,-0.2065338,-0.7795909
1097,0.7927822,-0.20842,-0.7758168
1100,0.7927822,-0.20842,-0.7758168
1102,0.7878303,-0.2130625,-0.7702479
1104,0.7860898,-0.2102893,-0.7687222
1107,0.7860898,-0.2102893,-0.7687222
1110,0.7835966,-0.2102893,-0.7661725
1112,0.7835966,-0.2102893,-0.7661725
1115,0.7825971,-0.2121421,-0.7651502
1117,0.7825971,-0.2121421,-0.7651502
1119,0.7820969,-0.2121421,-0.7646385
1122,0.7810954,-0.2148914,-0.7628451
1124,0.7810954,-0.2148914,-0.7628451
1126,0.7808449,-0.2158,-0.7625886
1129,0.7808449,-0.2158,-0.7625886
1131,0.7810954,-0.2185032,-0.7620752
1133,0.7815963,-0.2193969,-0.7618184
1136,0.7815963,-0.2193969,-0.7618184
1138,0.7813459,-0.2185032,-0.7620752
1140,0.7808449,-0.2185032,-0.7620752
1142,0.7805943,-0.2176059,-0.7618184
1145,0.7805943,-0.2176059,-0.7618184
1147,0.7813459,-0.2193969,-0.7620752
1149,0.7825971,-0.220287,-0.7631016
1153,0.7825971,-0.220287,-0.7631016
1155,0.7833468,-0.2220564,-0.7633579
1157,0.7833468,-0.2220564,-0.7633579
1160,0.7838463,-0.2238118,-0.7636142
1162,0.7843454,-0.2238118,-0.7636142
1164,0.7843454,-0.2238118,-0.7636142
1167,0.7843454,-0.2246844,-0.7638705
1169,0.7843454,-0.2246844,-0.7638705
1171,0.7870849,-0.2246844,-0.7666831
1174,0.7870849,-0.2246844,-0.7666831
1176,0.7912999,-0.2229358,-0.7710097
1178,0.7932757,-0.220287,-0.7737964
1181,0.7932757,-0.220287,-0.7737964
1183,0.7950006,-0.2185032,-0.7760689
1185,0.7950006,-0.2185032,-0.7760689
1188,0.7974581,-0.2130625,-0.7798419
1190,0.7974581,-0.2130625,-0.7798419
1192,0.798684,-0.2112177,-0.7815963
1196,0.7999081,-0.2093567,-0.7833468
1198,0.7999081,-0.2093567,-0.7833468
1200,0.8003972,-0.2055842,-0.7848442
1203,0.8011303,-0.2027088,-0.7863387
1205,0.8018627,-0.1988102,-0.7885751
1207,0.8025945,-0.1958353,-0.7898148
1210,0.8025945,-0.1958353,-0.7898148
1212,0.8033255,-0.1928145,-0.7912999
1214,0.8033255,-0.1928145,-0.7912999
1217,0.8064859,-0.1855749,-0.7962303
1219,0.8064859,-0.1855749,-0.7962303
1221,0.8108415,-0.1823843,-0.8016186
1224,0.8144533,-0.1802258,-0.8055148
1226,0.8144533,-0.1802258,-0.8055148
1228,0.8213912,-0.1758294,-0.8134917
1230,0.8213912,-0.1758294,-0.8134917
1233,0.8244823,-0.1735894,-0.8175707
1235,0.8270888,-0.1713202,-0.8206762
1238,0.8270888,-0.1713202,-0.8206762
1241,0.8357967,-0.1678588,-0.8296872
1243,0.8357967,-0.1678588,-0.8296872
1245,0.8388348,-0.166689,-0.8336869
1248,0.8388348,-0.166689,-0.8336869
1250,0.8413968,-0.1643245,-0.8364988
1252,0.8434873,-0.1631294,-0.839068
1255,0.8434873,-0.1631294,-0.839068
1257,0.848345,-0.1619255,-0.844183
1259,0.848345,-0.1619255,-0.844183
1262,0.8501883,-0.1607126,-0.8460353
1264,0.854092,-0.1631294,-0.8497278
1266,0.854092,-0.1631294,-0.8497278
1269,0.85638,-0.1631294,-0.8517979
1271,0.85638,-0.1631294,-0.8517979
1273,0.857978,-0.1643245,-0.8536337
1276,0.857978,-0.1643245,-0.8536337
1278,0.8613922,-0.166689,-0.8559229
1281,0.8627541,-0.1678588,-0.8570652
1284,0.8627541,-0.1678588,-0.8570652
1286,0.8650193,-0.1724585,-0.8591176
1288,0.8650193,-0.1724585,-0.8591176
1291,0.8659236,-0.1735894,-0.8598006
1293,0.8659236,-0.1735894,-0.8598006
1295,0.866827,-0.1735894,-0.8602557
1298,0.8672784,-0.1735894,-0.8609378
1300,0.8672784,-0.1735894,-0.8609378
1302,0.867504,-0.174713,-0.8609378
1305,0.867504,-0.174713,-0.8609378
1307,0.866827,-0.1735894,-0.8604831
1309,0.8661495,-0.1735894,-0.8598006
1312,0.8661495,-0.1735894,-0.8598006
1314,0.8656976,-0.174713,-0.8595729
1316,0.8656976,-0.174713,-0.8595729
1318,0.8656976,-0.1735894,-0.8593453
1321,0.8656976,-0.1735894,-0.8593453
1324,0.8656976,-0.1735894,-0.8593453
1326,0.8654715,-0.1735894,-0.8591176
1329,0.8654715,-0.1735894,-0.8591176
1331,0.8643403,-0.1735894,-0.8577499
1333,0.8643403,-0.1735894,-0.8577499
1336,0.8623004,-0.1724585,-0.8559229
1338,0.8600281,-0.1701742,-0.8536337
1340,0.8600281,-0.1701742,-0.8536337
1343,0.8591176,-0.1713202,-0.8529457
1345,0.8591176,-0.1713202,-0.8529457
1347,0.8566085,-0.1701742,-0.8506485
1350,0.8566085,-0.1701742,-0.8506485
1352,0.8556943,-0.1713202,-0.8497278
1354,0.8547791,-0.1735894,-0.8481144
1357,0.8538629,-0.174713,-0.8469599
1359,0.8534044,-0.1769387,-0.8460353
1361,0.8534044,-0.1769387,-0.8460353
1364,0.8517979,-0.1780411,-0.8439512
1367,0.8517979,-0.1780411,-0.8439512
1369,0.8506485,-0.1780411,-0.8430232
1372,0.8478836,-0.1802258,-0.8397673
1374,0.8478836,-0.1802258,-0.8397673
1376,0.8469599,-0.1813082,-0.8386015
1379,0.8469599,-0.1813082,-0.8386015
1381,0.8423266,-0.1802258,-0.8343908
1383,0.8406988,-0.1802258,-0.8327476
1386,0.8406988,-0.1802258,-0.8327476
1388,0.8388348,-0.1845175,-0.829923
1390,0.8388348,-0.1845175,-0.829923
1393,0.8379012,-0.1845175,-0.8287433
1395,0.8379012,-0.1845175,-0.8287433
1397,0.8348597,-0.1823843,-0.8259051
1400,0.8332174,-0.1813082,-0.8244823
1402,0.8332174,-0.1813082,-0.8244823
1404,0.8296872,-0.1813082,-0.8209146
1406,0.8296872,-0.1813082,-0.8209146
1410,0.8273254,-0.1813082,-0.8187665
1412,0.82377,-0.1813082,-0.8149337
1414,0.82377,-0.1813082,-0.8149337
1417,0.8221055,-0.1813082,-0.8132511
1419,0.8221055,-0.1813082,-0.8132511
1421,0.8206762,-0.1813082,-0.8118062
1424,0.8206762,-0.1813082,-0.8118062
1426,0.8166127,-0.183454,-0.806971
1428,0.8134917,-0.1813082,-0.8042993
1431,0.8110828,-0.1813082,-0.8021067
1433,0.8091505,-0.1791368,-0.8003972
1435,0.8091505,-0.1791368,-0.8003972
1438,0.8076981,-0.1769387,-0.798929
1440,0.8028382,-0.1823843,-0.7937689
1442,0.8028382,-0.1823843,-0.7937689
1445,0.7974581,-0.1813082,-0.7890712
1447,0.7974581,-0.1813082,-0.7890712
1449,0.7947544,-0.1813082,-0.7868362
1453,0.7947544,-0.1813082,-0.7868362
1455,0.7900625,-0.1769387,-0.7833468
1457,0.7883269,-0.1758294,-0.7820969
1460,0.7883269,-0.1758294,-0.7820969
1462,0.7858408,-0.1735894,-0.7808449
1464,0.7858408,-0.1735894,-0.7808449
1467,0.7853427,-0.1735894,-0.7810954
1469,0.7853427,-0.1735894,-0.7810954
1471,0.7850935,-0.1758294,-0.7808449
1474,0.7855918,-0.1769387,-0.7810954
1476,0.7855918,-0.1769387,-0.7810954
1478,0.7863387,-0.1802258,-0.7815963
1481,0.7863387,-0.1802258,-0.7815963
1483,0.7875819,-0.1813082,-0.7825971
1485,0.7880787,-0.183454,-0.783097
1488,0.7880787,-0.183454,-0.783097
1490,0.7898148,-0.183454,-0.7850935
1492,0.7898148,-0.183454,-0.7850935
1495,0.7905577,-0.183454,-0.7858408
1498,0.7905577,-0.183454,-0.7858408
1500,0.7917944,-0.1845175,-0.7873334
1502,0.7925354,-0.1855749,-0.7880787
1505,0.7925354,-0.1855749,-0.7880787
1507,0.8042993,-0.1928145,-0.7977034
1509,0.8042993,-0.1928145,-0.7977034
1512,0.8127698,-0.1968319,-0.8047857
1514,0.8158936,-0.1988102,-0.8074558
1516,0.8158936,-0.1988102,-0.8074558
1519,0.8223435,-0.2007689,-0.812529
1521,0.8223435,-0.2007689,-0.812529
1523,0.8249568,-0.2017412,-0.8146936
1526,0.8249568,-0.2017412,-0.8146936
1528,0.8292154,-0.2036718,-0.8180492
1530,0.8311011,-0.2046302,-0.8192443
1533,0.8311011,-0.2046302,-0.8192443
1536,0.8329825,-0.2046302,-0.8206762
1538,0.8329825,-0.2046302,-0.8206762
1541,0.8334522,-0.2055842,-0.8204377
1543,0.8334522,-0.2055842,-0.8204377
1545,0.8062432,-0.1607126,-0.8033255
1548,0.7858408,-0.1266688,-0.7890712
1550,0.7858408,-0.1266688,-0.7890712
1552,0.7592455,-0.09278741,-0.7674484
1555,0.7592455,-0.09278741,-0.7674484
1557,0.7600183,-0.09065409,-0.7679582
1559,0.7602757,-0.09487279,-0.7679582
1562,0.7602757,-0.09487279,-0.7679582
1564,0.7712635,-0.1101434,-0.7763211
1566,0.7712635,-0.1101434,-0.7763211
1569,0.7750598,-0.1186941,-0.7793398
1571,0.7750598,-0.1186941,-0.7793398
1573,0.7600183,-0.09891172,-0.7671934
1575,0.7399282,0.09065409,-0.7486043
1579,0.7399282,0.09065409,-0.7486043
1581,0.7478197,-0.08846933,-0.7564052
1583,0.7478197,-0.08846933,-0.7564052
1586,0.7504317,-0.09065409,-0.7587299
1588,0.7631016,-0.1027921,-0.7697397
1590,0.7631016,-0.1027921,-0.7697397
1593,0.7679582,-0.1101434,-0.7737964
1595,0.7679582,-0.1101434,-0.7737964
1597,0.7760689,-0.1219466,-0.7795909
1600,0.7760689,-0.1219466,-0.7795909
1602,0.7878303,-0.1426525,-0.7880787
1604,0.7942618,-0.1545051,-0.7920414
1607,0.7942618,-0.1545051,-0.7920414
1609,0.8035691,-0.1713202,-0.7981939
1611,0.8035691,-0.1713202,-0.7981939
1614,0.8093922,-0.1813082,-0.8018627
1616,0.81781,-0.1948336,-0.806971
1618,0.81781,-0.1948336,-0.806971
1622,0.8221055,-0.2027088,-0.8096339
1624,0.8221055,-0.2027088,-0.8096339
1626,0.828271,-0.2139789,-0.8132511
1629,0.828271,-0.2139789,-0.8132511
1631,0.829923,-0.2176059,-0.8137322
1633,0.8322775,-0.2220564,-0.8146936
1636,0.8322775,-0.2220564,-0.8146936
1638,0.8332174,-0.2238118,-0.8154138
1640,0.8332174,-0.2238118,-0.8154138
1643,0.8343908,-0.2255535,-0.8166127
1645,0.8343908,-0.2255535,-0.8166127
1647,0.8348597,-0.2246844,-0.8170919
1650,0.8353283,-0.2255535,-0.8173313
1652,0.8353283,-0.2255535,-0.8173313
1654,0.8355626,-0.2238118,-0.81781
1657,0.8355626,-0.2238118,-0.81781
1659,0.835094,-0.2238118,-0.81781
1661,0.8348597,-0.2229358,-0.81781
1664,0.8348597,-0.2229358,-0.81781
1667,0.8343908,-0.2229358,-0.8173313
1669,0.8343908,-0.2229358,-0.8173313
1671,0.8334522,-0.2229358,-0.8163731
1674,0.8334522,-0.2229358,-0.8163731
1676,0.8318071,-0.2211734,-0.8146936
1678,0.8313365,-0.2220564,-0.8139727
1681,0.8313365,-0.2220564,-0.8139727
1683,0.8303944,-0.2229358,-0.8127698
1685,0.8303944,-0.2229358,-0.8127698
1688,0.829923,-0.2211734,-0.812529
1690,0.8287433,-0.2193969,-0.8122882
1692,0.8287433,-0.2193969,-0.8122882
1695,0.828271,-0.2185032,-0.8120472
1697,0.828271,-0.2185032,-0.8120472
1699,0.8280347,-0.2176059,-0.8118062
1702,0.8280347,-0.2176059,-0.8118062
1704,0.8277984,-0.2176059,-0.8115651
1707,0.8266156,-0.2158,-0.8110828
1710,0.8266156,-0.2158,-0.8110828
1712,0.8266156,-0.2139789,-0.8110828
1714,0.8266156,-0.2139789,-0.8110828
1717,0.8249568,-0.2121421,-0.8096339
1719,0.8228193,-0.20842,-0.8086666
1721,0.8228193,-0.20842,-0.8086666
1724,0.8218675,-0.20842,-0.8079404
1726,0.8218675,-0.20842,-0.8079404
1728,0.8204377,-0.2046302,-0.8074558
1731,0.8204377,-0.2046302,-0.8074558
1733,0.8194832,-0.2036718,-0.8067285
1735,0.8192443,-0.2017412,-0.806971
1738,0.8192443,-0.2017412,-0.806971
1740,0.8187665,-0.2007689,-0.806971
1742,0.8187665,-0.2007689,-0.806971
1745,0.8197219,-0.2007689,-0.8076981
1747,0.8197219,-0.2007689,-0.8076981
1750,0.8211529,-0.199792,-0.8091505
1752,0.8218675,-0.199792,-0.8096339
1755,0.8218675,-0.199792,-0.8096339
1757,0.7800927,-0.1203313,-0.7840959
1759,0.7800927,-0.1203313,-0.7840959
1762,0.7512136,-0.09065409,-0.7600183
1764,0.7401926,0.1027921,-0.747558
1766,0.7401926,0.1027921,-0.747558
1769,0.7281993,0.1467098,-0.7287365
1771,0.7281993,0.1467098,-0.7287365
1773,0.7246976,0.1724585,-0.719821
1776,0.7246976,0.1724585,-0.719821
1778,0.7244276,0.2193969,-0.7063754
1780,0.7263159,0.2406627,-0.7016503
1783,0.7284679,0.2594432,-0.697174
1785,0.7308815,0.2776587,-0.6932335
1787,0.7308815,0.2776587,-0.6932335
1790,0.7241574,0.2967354,-0.6795497
1793,0.7228051,0.3058279,-0.6740565
1795,0.7228051,0.3058279,-0.6740565
1798,0.7138155,0.309643,-0.6649964
1800,0.7138155,0.309643,-0.6649964
1802,0.7113441,0.3134116,-0.6608641
1805,0.7113441,0.3134116,-0.6608641
1807,0.7060983,0.3220336,-0.652221
1809,0.7047113,0.3274564,-0.6483091
1812,0.7047113,0.3274564,-0.6483091
1814,0.7044336,0.3426407,-0.6407191
1816,0.7044336,0.3426407,-0.6407191
1819,0.7058211,0.358274,-0.6345818
1821,0.7058211,0.358274,-0.6345818
1823,0.7069291,0.364769,-0.6321102
1826,0.7096917,0.3789758,-0.628073
1828,0.7096917,0.3789758,-0.628073
1830,0.7151849,0.3951527,-0.6246366
1833,0.7151849,0.3951527,-0.6246366
1836,0.7179157,0.4029978,-0.6230683
1838,0.7160051,0.4029978,-0.6214961
1840,0.7160051,0.4029978,-0.6214961
1843,0.7157319,0.4039677,-0.6208661
1845,0.7157319,0.4039677,-0.6208661
1847,0.717643,0.4168407,-0.6180231
1850,0.717643,0.4168407,-0.6180231
1852,0.719005,0.4228991,-0.6170725
1854,0.719821,0.4311472,-0.6145305
1857,0.719821,0.4311472,-0.6145305
1859,0.7192771,0.4356619,-0.6132555
1861,0.7192771,0.4356619,-0.6132555
1864,0.7181882,0.4356619,-0.6135744
1866,0.7168246,0.4370072,-0.6135744
1868,0.7168246,0.4370072,-0.6135744
1871,0.7236168,0.4419051,-0.6199199
1873,0.7236168,0.4419051,-0.6199199
1875,0.7260464,0.4436728,-0.6218109
1879,0.7260464,0.4436728,-0.6218109
1881,0.7311491,0.456712,-0.6221254
1883,0.733287,0.4622481,-0.6221254
1886,0.733287,0.4622481,-0.6221254
1888,0.7391344,0.4751895,-0.6218109
1890,0.7391344,0.4751895,-0.6218109
1893,0.7451985,0.4885893,-0.6221254
1895,0.7451985,0.4901886,-0.6224399
1897,0.7451985,0.4901886,-0.6224399
1900,0.7451985,0.4913847,-0.6224399
1902,0.7451985,0.4913847,-0.6224399
1904,0.7364823,0.4639383,-0.6333472
1907,0.7364823,0.4639383,-0.6333472
1909,0.7260464,0.4219727,-0.649214
1911,0.7149112,0.3322025,-0.6864257
1914,0.7149112,0.3322025,-0.6864257
1916,0.7362165,0.2382111,-0.7428315
1918,0.7362165,0.2382111,-0.7428315
1922,0.7651502,0.2065338,-0.7740492
1924,0.7651502,0.2065338,-0.7740492
1926,0.7651502,0.2065338,-0.7740492
1928,0.7651502,0.2065338,-0.7740492
1931,0.7651502,0.2065338,-0.7740492
1933,0.8545501,-0.1876719,-0.8543211
1935,0.8545501,-0.1876719,-0.8543211
1938,0.8989637,-0.2007689,-0.8921905
1940,0.9723696,-0.2486604,-0.9516218
1942,0.9723696,-0.2486604,-0.9516218
1945,1.003272,-0.2960753,-0.9691444
1947,1.003272,-0.2960753,-0.9691444
1949,1.059063,-0.3800071,-0.9989719
1952,1.059063,-0.3800071,-0.9989719
1954,1.080284,-0.410693,-1.010269
1956,1.119775,-0.4660423,-1.030786
1959,1.119775,-0.4660423,-1.030786
1961,1.123787,-0.4885893,-1.023929
1964,1.123787,-0.4885893,-1.023929
1967,1.136428,-0.530449,-1.016833
1969,1.144834,-0.5503638,-1.015678
1971,1.144834,-0.5503638,-1.015678
1974,1.0945,-0.5252593,-0.9713628
1976,1.0945,-0.5252593,-0.9713628
1978,1.046985,-0.4992853,-0.9314623
1981,1.046985,-0.4992853,-0.9314623
1983,1.022782,-0.4853748,-0.9119305
1985,1.004247,-0.4764233,-0.8959111
1988,0.9779881,-0.4601268,-0.8753631
1990,0.9575664,-0.4493696,-0.8588898
1992,0.9575664,-0.4493696,-0.8588898
1995,0.9291486,-0.4370072,-0.8341562
1997,0.9123595,-0.4261257,-0.8211529
1999,0.9123595,-0.4261257,-0.8211529
2002,0.881156,-0.4068635,-0.7972127
2004,0.881156,-0.4068635,-0.7972127
2007,0.866827,-0.3986039,-0.7860898
2010,0.866827,-0.3986039,-0.7860898
2012,0.842791,-0.3876539,-0.7656615
2014,0.8327476,-0.3846134,-0.7564052
2016,0.8327476,-0.3846134,-0.7564052
2019,0.8182884,-0.3820612,-0.7420408
2021,0.8182884,-0.3820612,-0.7420408
2023,0.8096339,-0.3789758,-0.7340872
2026,0.8096339,-0.3789758,-0.7340872
2028,0.7977034,-0.3774237,-0.7217214
2030,0.7843454,-0.373777,-0.7080355
2033,0.7843454,-0.373777,-0.7080355
2035,0.7798419,-0.3732531,-0.7030433
2037,0.7798419,-0.3732531,-0.7030433
2040,0.7778319,-0.3758652,-0.6988559
2042,0.7773286,-0.3779418,-0.697174
2044,0.7773286,-0.3779418,-0.697174
2048,0.7788376,-0.3876539,-0.6935157
2050,0.7788376,-0.3876539,-0.6935157
2052,0.7798419,-0.3921704,-0.6918207
2055,0.7798419,-0.3921704,-0.6918207
2057,0.7785863,-0.3971285,-0.6869956
2059,0.7780834,-0.4020255,-0.6829963
2062,0.7780834,-0.4020255,-0.6829963
2064,0.7773286,-0.403483,-0.6812752
2066,0.7773286,-0.403483,-0.6812752
2069,0.7763211,-0.4073442,-0.6781085
2071,0.772531,-0.3971285,-0.6795497
2073,0.772531,-0.3971285,-0.6795497
2076,0.7694854,-0.3891652,-0.680413
2078,0.7694854,-0.3891652,-0.680413
2080,0.7613045,-0.3669084,-0.6829963
2083,0.7613045,-0.3669084,-0.6829963
2085,0.7582139,-0.3588198,-0.6838553
2087,0.7543329,-0.3454843,-0.6869956
2091,0.7543329,-0.3454843,-0.6869956
2093,0.7530347,-0.3403488,-0.687565
2095,0.7530347,-0.3403488,-0.687565
2098,0.7512136,-0.3310224,-0.6912548
2100,0.7512136,-0.3310224,-0.6912548
2102,0.7506924,-0.3274564,-0.6923862
2104,0.7530347,-0.3256589,-0.6968932
2107,0.7530347,-0.3256589,-0.6968932
2109,0.7540734,-0.3250574,-0.6980155
2111,0.7540734,-0.3250574,-0.6980155
2114,0.7561465,-0.3189811,-0.7038778
2116,0.7574393,-0.315279,-0.7072059
2118,0.758472,-0.3121605,-0.7102429
2121,0.7607903,-0.3064671,-0.7151849
2123,0.7607903,-0.3064671,-0.7151849
2125,0.7643827,-0.2980514,-0.7230757
2128,0.7643827,-0.2980514,-0.7230757
2130,0.7669383,-0.2914124,-0.729005
2132,0.7710097,-0.2825486,-0.7378095
2136,0.7710097,-0.2825486,-0.7378095
2138,0.7793398,-0.272681,-0.7509531
2140,0.7793398,-0.272681,-0.7509531
2143,0.782347,-0.2690692,-0.7556288
2145,0.7893192,-0.2639296,-0.7646385
2147,0.7893192,-0.2639296,-0.7646385
2150,0.7999081,-0.2594432,-0.7778319
2152,0.7999081,-0.2594432,-0.7778319
2154,0.8079404,-0.2556444,-0.7873334
2157,0.8079404,-0.2556444,-0.7873334
2159,0.8146936,-0.2517883,-0.7950006
2161,0.8275619,-0.2446942,-0.8103587
2164,0.8275619,-0.2446942,-0.8103587
2166,0.8386015,-0.2373883,-0.82377
2168,0.8386015,-0.2373883,-0.82377
2171,0.845804,-0.2289973,-0.8332174
2173,0.8515682,-0.2229358,-0.8406988
2176,0.8515682,-0.2229358,-0.8406988
2179,0.8609378,-0.2112177,-0.8524867
2181,0.8609378,-0.2112177,-0.8524867
2183,0.8645667,-0.2055842,-0.8572935
2185,0.8645667,-0.2055842,-0.8572935
2188,0.8715547,-0.1958353,-0.8663754
2190,0.8775957,-0.1897456,-0.873349
2192,0.8775957,-0.1897456,-0.873349
2195,0.8818219,-0.1876719,-0.8784871
2197,0.8818219,-0.1876719,-0.8784871
2199,0.8877931,-0.1813082,-0.8858072
2202,0.8877931,-0.1813082,-0.8858072
2204,0.8902143,-0.1802258,-0.8884541
2206,0.8948184,-0.1713202,-0.8948184
2209,0.8948184,-0.1713202,-0.8948184
2211,0.8985283,-0.166689,-0.899399
2213,0.8985283,-0.166689,-0.899399
2216,0.9037398,-0.1594904,-0.9059024
2219,0.9054703,-0.1557664,-0.9080599
2221,0.9054703,-0.1557664,-0.9080599
2224,0.9119305,-0.1532334,-0.9164255
2226,0.9119305,-0.1532334,-0.9164255
2228,0.9170658,-0.1519511,-0.923021
2231,0.9170658,-0.1519511,-0.923021
2233,0.9251386,-0.1545051,-0.932722
2235,0.9043891,-0.166689,-0.9130027
2238,0.9043891,-0.166689,-0.9130027
2240,0.8746923,0.1948336,-0.8827091
2242,0.8746923,0.1948336,-0.8827091
2245,0.8641139,0.20842,-0.8713301
2247,0.8529457,-0.3090104,-0.8504184
2249,0.8529457,-0.3090104,-0.8504184
2252,0.8588898,-0.3690354,-0.8420942
2254,0.8588898,-0.3690354,-0.8420942
2256,0.881156,-0.4020255,-0.8492672
2259,0.881156,-0.4020255,-0.8492672
2262,0.8899944,-0.4173099,-0.8515682
2264,0.9412843,-0.5612772,-0.8409316
2267,0.9412843,-0.5612772,-0.8409316
2269,0.9663135,-0.6189722,-0.8369665
2271,0.9663135,-0.6189722,-0.8369665
2273,0.972772,-0.6013339,-0.8467289
2276,0.972772,-0.6013339,-0.8467289
2278,0.9759852,-0.5977437,-0.8499581
2280,0.9636774,-0.5421248,-0.8600281
2283,0.9636774,-0.5421248,-0.8600281
2285,0.9575664,-0.5082192,-0.8659236
2287,0.9575664,-0.5082192,-0.8659236
2290,0.9512104,-0.4809199,-0.8704314
2292,0.9431533,-0.4423477,-0.8767033
2294,0.9431533,-0.4423477,-0.8767033
2297,0.9356545,-0.4102162,-0.8796002
2299,0.9356545,-0.4102162,-0.8796002
2301,0.9331415,-0.3986039,-0.8804895
2305,0.9331415,-0.3986039,-0.8804895
2307,0.9245038,-0.3769049,-0.8787099
2309,0.9217481,-0.3690354,-0.8778186
2312,0.9217481,-0.3690354,-0.8778186
2314,0.7449358,0.1897456,-0.7532945
2316,0.7449358,0.1897456,-0.7532945
2319,0.7146374,0.2365626,-0.7072059
2321,0.6980155,0.3380413,-0.6467983
2323,0.6980155,0.3380413,-0.6467983
2326,0.6988559,0.3800071,-0.6240098
2328,0.6988559,0.3800071,-0.6240098
2330,0.6849989,0.3695653,-0.6167554
2333,0.6849989,0.3695653,-0.6167554
2335,0.6801254,0.3669084,-0.6135744
2337,0.6638185,0.2853053,-0.6370438
2340,0.6638185,0.2853053,-0.6370438
2342,0.6611602,0.2571706,-0.6452838
2344,0.6602717,0.235734,-0.6516207
2348,0.6635236,0.2027088,-0.6649964
2350,0.675796,0.1701742,-0.6844273
2352,0.675796,0.1701742,-0.6844273
2355,0.6847132,-0.1643245,-0.6929511
2357,0.6847132,-0.1643245,-0.6929511
2359,0.7024865,-0.1780411,-0.7060983
2361,0.7024865,-0.1780411,-0.7060983
2364,0.7157319,-0.2065338,-0.7107937
2366,0.7225344,-0.2211734,-0.7124436
2368,0.7225344,-0.2211734,-0.7124436
2371,0.7252374,-0.2438933,-0.7069291
2373,0.7252374,-0.2438933,-0.7069291
2375,0.7298098,-0.2654082,-0.7033216
2378,0.7298098,-0.2654082,-0.7033216
2380,0.7192771,-0.2462884,-0.6985759
2382,0.7058211,-0.2229358,-0.6912548
2385,0.7058211,-0.2229358,-0.6912548
2387,0.6906884,-0.23239,-0.6708556
2390,0.6906884,-0.23239,-0.6708556
2393,0.6708556,-0.2525642,-0.6398023
2395,0.6452838,-0.1948336,-0.6333472
2397,0.6452838,-0.1948336,-0.6333472
2400,0.6177064,-0.1266688,-0.6227542
2402,0.6177064,-0.1266688,-0.6227542
2404,0.6277614,-0.1203313,-0.6345818
2407,0.6277614,-0.1203313,-0.6345818
2409,0.6419396,-0.1266688,-0.6477052
2411,0.6760855,-0.1532334,-0.6763749
2414,0.6760855,-0.1532334,-0.6763749
2416,0.711894,-0.1907741,-0.7035998
2418,0.711894,-0.1907741,-0.7035998
2421,0.7327532,-0.2158,-0.717643
2423,0.7664279,-0.2579304,-0.7391344
2425,0.7664279,-0.2579304,-0.7391344
2428,0.7940154,-0.2914124,-0.7558876
2430,0.7940154,-0.2914124,-0.7558876
2433,0.8060005,-0.3051875,-0.7631016
2436,0.8060005,-0.3051875,-0.7631016
2438,0.8270888,-0.3292442,-0.7760689
2440,0.8362648,-0.339197,-0.7815963
2443,0.8362648,-0.339197,-0.7815963
2445,0.8517979,-0.3527702,-0.7925354
2447,0.8517979,-0.3527702,-0.7925354
2449,0.8586619,-0.3577275,-0.7977034
2452,0.8706562,-0.3674413,-0.8062432
2454,0.8706562,-0.3674413,-0.8062432
2456,0.8807117,-0.3769049,-0.8130105
2459,0.8807117,-0.3769049,-0.8130105
2461,0.8853652,-0.3815487,-0.8161334
2463,0.8853652,-0.3815487,-0.8161334
2466,0.8932863,-0.3763854,-0.8270888
2468,0.9013549,-0.3711503,-0.8379012
2470,0.9013549,-0.3711503,-0.8379012
2473,0.9054703,-0.3690354,-0.8432553
2476,0.9054703,-0.3690354,-0.8432553
2478,0.9127884,-0.364769,-0.8531751
2481,0.9127884,-0.364769,-0.8531751
2483,0.9198356,-0.3626169,-0.8620735
2485,0.923021,-0.3620769,-0.8654715
2488,0.923021,-0.3620769,-0.8654715
2490,0.9285166,-0.3577275,-0.873349
2492,0.9285166,-0.3577275,-0.873349
2495,0.9312522,-0.3577275,-0.8764802
2497,0.9412843,-0.3609945,-0.8862489
2499,0.9412843,-0.3609945,-0.8862489
2502,0.9505931,-0.3642322,-0.8948184
2504,0.9505931,-0.3642322,-0.8948184
2506,0.955111,-0.3663747,-0.8987461
2509,0.955111,-0.3663747,-0.8987461
2511,0.9628648,-0.3706227,-0.9050379
2513,0.9739782,-0.3784592,-0.9134313
2516,0.9739782,-0.3784592,-0.9134313
2519,0.9785881,-0.3820612,-0.9168525
2521,0.9785881,-0.3820612,-0.9168525
2524,0.9869508,-0.3881583,-0.923021
2526,0.9903157,-0.3906707,-0.9255615
2528,0.9903157,-0.3906707,-0.9255615
2531,0.9946532,-0.4049353,-0.9247154
2533,0.9946532,-0.4049353,-0.9247154
2535,0.9977959,-0.4187142,-0.9223848
2537,0.9977959,-0.4187142,-0.9223848
2540,0.9991678,-0.4261257,-0.9206861
2542,1.002101,-0.4374548,-0.9187712
2544,1.002101,-0.4374548,-0.9187712
2547,1.004442,-0.4454334,-0.917919
2549,1.004442,-0.4454334,-0.917919
2551,1.00833,-0.456712,-0.9170658
2554,1.00833,-0.456712,-0.9170658
2556,1.008136,-0.4639383,-0.9138597
2558,1.008912,-0.4668813,-0.9130027
2562,1.008912,-0.4668813,-0.9130027
2564,1.00736,-0.4702222,-0.9093519
2566,1.00736,-0.4702222,-0.9093519
2569,1.00736,-0.4743652,-0.9078444
2571,1.006777,-0.4739525,-0.9069818
2573,1.006777,-0.4739525,-0.9069818
2576,1.006777,-0.4739525,-0.9065502
2578,1.006777,-0.4739525,-0.9065502
2580,1.003857,-0.4702222,-0.9056864
2583,1.003857,-0.4702222,-0.9056864
2585,1.001124,-0.464781,-0.9050379
2587,1.003857,-0.4396856,-0.9183452
2590,1.003857,-0.4396856,-0.9183452
2592,1.00561,-0.4316007,-0.9236568
2594,1.00561,-0.4316007,-0.9236568
2597,1.003857,-0.4210443,-0.9259842
2599,0.9995593,-0.416371,-0.9234449
2601,0.9995593,-0.416371,-0.9234449
2605,0.9944565,-0.4168407,-0.9181321
2607,0.9944565,-0.4168407,-0.9181321
2609,0.9881397,-0.416371,-0.9112865
2612,0.9881397,-0.416371,-0.9112865
2614,0.987149,-0.4063823,-0.9145018
2616,0.9865541,-0.3901695,-0.9198356
2619,0.9865541,-0.3901695,-0.9198356
2621,0.9829774,-0.393167,-0.9147157
2623,0.9829774,-0.393167,-0.9147157
2625,0.9783881,-0.3976209,-0.9078444
2628,0.9735762,-0.4092611,-0.8983104
2630,0.9735762,-0.4092611,-0.8983104
2632,0.971967,-0.4125943,-0.8952556
2635,0.971967,-0.4125943,-0.8952556
2637,0.972772,-0.4087828,-0.8972207
2639,0.972772,-0.4087828,-0.8972207
2642,0.9757847,-0.3986039,-0.9046055
2644,0.9779881,-0.4130683,-0.9007034
2647,0.9779881,-0.4130683,-0.9007034
2650,0.9817823,-0.4347627,-0.8954742
2652,0.9817823,-0.4347627,-0.8954742
2654,0.9845687,-0.450674,-0.8906538
2657,0.9845687,-0.450674,-0.8906538
2659,0.9893272,-0.4751895,-0.8840382
2661,0.9915005,-0.4845679,-0.8820438
2664,0.9915005,-0.4845679,-0.8820438
2666,0.9907107,-0.4965344,-0.8749159
2668,0.9907107,-0.4965344,-0.8749159
2671,0.9897227,-0.5031891,-0.8699816
2673,0.9891293,-0.5055169,-0.8684058
2675,0.9891293,-0.5055169,-0.8684058
2678,0.9885356,-0.5082192,-0.8661495
2680,0.9885356,-0.5082192,-0.8661495
2682,0.9889315,-0.5109072,-0.8652454
2685,0.9889315,-0.5109072,-0.8652454
2688,0.9920924,-0.5000685,-0.8740209
2690,0.9977959,-0.4853748,-0.8877931
2693,0.9977959,-0.4853748,-0.8877931
2695,1.000147,-0.4801054,-0.8928481
2697,1.000147,-0.4801054,-0.8928481
2700,0.9993636,-0.4817329,-0.8917516
2702,0.9999508,-0.4825446,-0.8915322
2704,0.9999508,-0.4825446,-0.8915322
2707,1.010656,-0.4718838,-0.9078444
2709,1.010656,-0.4718838,-0.9078444
2711,1.020291,-0.4639383,-0.9221727
2713,1.020291,-0.4639383,-0.9221727
2716,1.025075,-0.4605518,-0.9289381
2718,1.034197,-0.4515415,-0.9427382
2720,1.034197,-0.4515415,-0.9427382
2723,1.042302,-0.4432315,-0.955111
2725,1.042302,-0.4432315,-0.955111
2727,1.045488,-0.4401304,-0.9602193
2731,1.045488,-0.4401304,-0.9602193
2733,1.053877,-0.4329587,-0.9723696
2735,1.057214,-0.4302385,-0.9769872
2738,1.057214,-0.4302385,-0.9769872
2740,1.061094,-0.4177785,-0.9861575
2742,1.061094,-0.4177785,-0.9861575
2745,1.055732,-0.3711503,-0.9995593
2747,1.051833,-0.3380413,-1.007942
2749,1.051833,-0.3380413,-1.007942
2752,1.044552,-0.2668786,-1.022782
2754,1.044552,-0.2668786,-1.022782
2756,1.041926,-0.23239,-1.029646
2759,1.041926,-0.23239,-1.029646
2761,1.042302,-0.1845175,-1.040987
2763,1.047545,-0.1988102,-1.043427
2766,1.047545,-0.1988102,-1.043427
2768,1.049971,-0.2036718,-1.045114
2770,1.049971,-0.2036718,-1.045114
2774,1.069726,-0.23239,-1.057029
2776,1.074472,-0.2654082,-1.053506
2778,1.074472,-0.2654082,-1.053506
2781,1.072832,-0.2832403,-1.046798
2783,1.072832,-0.2832403,-1.046798
2785,1.071371,-0.3090104,-1.037598
2788,1.071371,-0.3090104,-1.037598
2790,1.071189,-0.3232465,-1.032872
2792,1.071554,-0.3280534,-1.031735
2794,1.071554,-0.3280534,-1.031735
2797,1.076837,-0.3238513,-1.038352
2799,1.076837,-0.3238513,-1.038352
2801,1.079197,-0.3226406,-1.041175
2804,1.081189,-0.2993615,-1.05053
2806,1.081189,-0.2993615,-1.05053
2808,1.082455,-0.2900664,-1.054248
2811,1.075746,-0.2748253,-1.051647
2813,1.075746,-0.2748253,-1.051647
2816,1.075746,-0.2748253,-1.051647
2819,1.075746,-0.2748253,-1.051647
2821,1.059248,-0.2517883,-1.040611
2823,1.059248,-0.2517883,-1.040611
2826,1.04605,-0.2332305,-1.031735
2828,1.04605,-0.2332305,-1.031735
2830,0.9168525,-0.09278741,-0.9247154
2833,0.9168525,-0.09278741,-0.9247154
2835,0.8469599,0.1203313,-0.8513383
2837,0.8050289,0.1813082,-0.7972127
2840,0.8050289,0.1813082,-0.7972127
2842,0.7592455,0.2940859,-0.7132671
2844,0.7592455,0.2940859,-0.7132671
2847,0.7287365,0.3292442,-0.6641131
2849,0.6921035,0.3906707,-0.5851721
2851,0.6921035,0.3906707,-0.5851721
2854,0.6504185,0.4238235,-0.5074486
2856,0.6504185,0.4238235,-0.5074486
2859,0.6379647,0.4401304,-0.4764233
2862,0.6379647,0.4401304,-0.4764233
2864,0.6113381,0.4601268,-0.4173099
2866,0.5881739,0.4731261,-0.365305
2869,0.5881739,0.4731261,-0.365305
2871,0.5678623,0.4635163,-0.343781
2873,0.5678623,0.4635163,-0.343781
2876,0.5403171,0.456712,-0.3051875
2878,0.5230194,0.4458725,-0.289391
2880,0.5230194,0.4458725,-0.289391
2882,0.4996771,0.4361108,-0.2601963
2885,0.4996771,0.4361108,-0.2601963
2887,0.4809199,0.4297835,-0.23239
2889,0.4809199,0.4297835,-0.23239
2892,0.4731261,0.4279585,-0.2176059
2894,0.4685547,0.4288719,-0.2017412
2896,0.4685547,0.4288719,-0.2017412
2899,0.4698059,0.4311472,-0.1978235
2902,0.4698059,0.4311472,-0.1978235
2904,0.4714689,0.4365593,-0.1887116
2907,0.4735395,0.4423477,-0.1780411
2909,0.4735395,0.4423477,-0.1780411
2911,0.4714689,0.4401304,-0.1791368
2914,0.4714689,0.4401304,-0.1791368
2916,0.4702222,0.4410186,-0.1735894
2918,0.4702222,0.4410186,-0.1735894
2921,0.4710537,0.4427898,-0.1690205
2923,0.4751895,0.4484978,-0.1678588
2925,0.4751895,0.4484978,-0.1678588
2928,0.4780633,0.4515415,-0.1678588
2930,0.4780633,0.4515415,-0.1678588
2932,0.5993783,0.5787839,-0.1678588
2935,0.5993783,0.5787839,-0.1678588
2937,0.709416,0.6915378,-0.1701742
2939,0.7628451,0.7457234,-0.174713
2942,0.7628451,0.7457234,-0.174713
2945,0.7977034,0.7677034,-0.2332305
2947,0.7977034,0.7677034,-0.2332305
2950,0.7942618,0.7362165,-0.315899
2952,0.7974581,0.7271236,-0.3454843
2954,0.7974581,0.7271236,-0.3454843
2957,0.66998,0.4731261,-0.4885893
2959,0.66998,0.4731261,-0.4885893
2961,0.6516207,0.382573,-0.5414024
2964,0.6516207,0.382573,-0.5414024
2966,0.6728944,0.1440177,-0.6688108
2968,0.709416,0.07132626,-0.7173703
2970,0.709416,0.07132626,-0.7173703
2973,0.7504317,0.09278741,-0.7558876
2975,0.7504317,0.09278741,-0.7558876
2977,0.7880787,0.09487279,-0.7935224
2980,0.8067285,0.08846933,-0.8127698
2982,0.8067285,0.08846933,-0.8127698
2984,0.8355626,0.07132626,-0.8432553
2988,0.8355626,0.07132626,-0.8432553
2990,0.8469599,0.06852804,-0.8554656
2992,0.8469599,0.06852804,-0.8554656
2995,0.8686311,-0.07401875,-0.8771496
2997,0.8787099,-0.08392937,-0.886911
2999,0.8787099,-0.08392937,-0.886911
3002,0.8983104,-0.1065312,-0.9048218
3004,0.8983104,-0.1065312,-0.9048218
3006,0.8853652,-0.09487279,-0.8941622
3009,0.8853652,-0.09487279,-0.8941622
3011,0.872228,0.1119058,-0.8796002
3013,0.857978,0.220287,-0.8451096
3016,0.857978,0.220287,-0.8451096
3018,0.8600281,0.2676108,-0.8336869
3020,0.8600281,0.2676108,-0.8336869
3023,0.9084908,0.530449,-0.7535542
3025,0.9503872,0.633656,-0.7246976
3027,0.9503872,0.633656,-0.7246976
3031,1.082094,0.8695317,-0.659382
3033,1.082094,0.8695317,-0.659382
3035,1.145005,0.9624583,-0.6351982
3038,1.145005,0.9624583,-0.6351982
3040,1.19321,1.020867,-0.6283845
3042,1.236856,1.073196,-0.6233823
3045,1.236856,1.073196,-0.6233823
3047,1.294676,1.148077,-0.6058724
3049,1.294676,1.148077,-0.6058724
3052,1.396197,1.273185,-0.5787839
3054,1.467671,1.350312,-0.5781073
3056,1.530463,1.418169,-0.5767518
3058,1.586343,1.478299,-0.5760729
3061,1.586343,1.478299,-0.5760729
3063,1.54649,1.416236,-0.6224399
3065,1.54649,1.416236,-0.6224399
3068,1.537988,1.399697,-0.6394964
3070,1.447262,1.286792,-0.6658786
3073,1.447262,1.286792,-0.6658786
3076,1.419135,1.250075,-0.6755064
3078,1.419135,1.250075,-0.6755064
3080,1.293315,1.081732,-0.7132671
3083,1.155891,0.8771496,-0.7574393
3085,1.155891,0.8771496,-0.7574393
3087,1.115749,0.825194,-0.7556288
3090,1.115749,0.825194,-0.7556288
3092,1.060725,0.7525149,-0.7535542
3094,1.060725,0.7525149,-0.7535542
3097,0.993866,0.6434618,-0.7651502
3099,0.9110718,0.4821389,-0.7835966
3101,0.9110718,0.4821389,-0.7835966
3104,0.8833739,0.4068635,-0.7959845
3106,0.8833739,0.4068635,-0.7959845
3108,0.8545501,0.2960753,-0.8161334
3111,0.8545501,0.2960753,-0.8161334
3113,0.8346253,0.2398483,-0.8158936
3116,0.8149337,0.1690205,-0.8166127
3119,0.8149337,0.1690205,-0.8166127
3121,0.82377,0.1370561,-0.8320423
3123,0.82377,0.1370561,-0.8320423
3126,0.8524867,-0.1678588,-0.8566085
3128,0.8693066,-0.2007689,-0.866827
3130,0.8693066,-0.2007689,-0.866827
3133,0.9149297,-0.2880355,-0.8884541
3135,0.9149297,-0.2880355,-0.8884541
3137,0.8318071,-0.20842,-0.825194
3140,0.8318071,-0.20842,-0.825194
3142,0.8042993,-0.1866263,-0.8025945
3144,0.7351527,-0.1384764,-0.7423044
3146,0.7351527,-0.1384764,-0.7423044
3149,0.6988559,-0.1266688,-0.7074825
3151,0.6988559,-0.1266688,-0.7074825
3153,0.6385778,0.1356209,-0.6428534
3156,0.6138933,0.1519511,-0.612617
3159,0.6138933,0.1519511,-0.612617
3161,0.577091,0.2382111,-0.5403171
3164,0.577091,0.2382111,-0.5403171
3166,0.5740312,0.3039024,-0.5004597
3168,0.5740312,0.3039024,-0.5004597
3171,0.5794597,0.3599087,-0.4660423
3173,0.5308178,0.3679734,-0.3921704
3175,0.5308178,0.3679734,-0.3921704
3178,0.5132,0.3716771,-0.3631561
3180,0.5132,0.3716771,-0.3631561
3182,0.4575681,0.3443497,-0.309643
3185,0.4356619,0.3339648,-0.2866737
3187,0.4356619,0.3339648,-0.2866737
3189,0.392669,0.3071049,-0.2517883
3192,0.392669,0.3071049,-0.2517883
3194,0.3593647,0.2825486,-0.2281412
3196,0.3593647,0.2825486,-0.2281412
3200,0.3443497,0.2712421,-0.2185032
3202,0.3208161,0.249446,-0.2093567
3204,0.3208161,0.249446,-0.2093567
3207,0.311533,0.2382111,-0.2074791
3209,0.311533,0.2382111,-0.2074791
3211,0.2993615,0.2220564,-0.20842
3214,0.2993615,0.2220564,-0.20842
3216,0.2960753,0.2148914,-0.2112177
3218,0.2887141,0.2046302,-0.2112177
3221,0.2887141,0.2046302,-0.2112177
3223,0.2907402,0.2017412,-0.2176059
3225,0.2914124,0.1988102,-0.2211734
3228,0.2914124,0.1968319,-0.2229358
3230,0.3071049,0.1928145,-0.2486604
3232,0.3071049,0.1928145,-0.2486604
3234,0.3121605,0.191797,-0.2556444
3237,0.3121605,0.191797,-0.2556444
3239,0.3679734,0.1823843,-0.3274564
3241,0.3679734,0.1823843,-0.3274564
3245,0.3881583,0.1780411,-0.3533245
3247,0.4562834,0.09891172,-0.4541341
3249,0.4562834,0.09891172,-0.4541341
3252,0.4869847,0.0656106,-0.4909863
3254,0.4869847,0.0656106,-0.4909863
3256,0.5743721,0,-0.5831623
3259,0.6097356,-0.02797646,-0.6180231
3261,0.6097356,-0.02797646,-0.6180231
3263,0.680988,-0.1008706,-0.6829963
3266,0.680988,-0.1008706,-0.6829963
3268,0.7105184,-0.1282043,-0.7083117
3270,0.7438844,-0.1643245,-0.7359507
3273,0.7735435,-0.1938267,-0.7595032
3275,0.8003972,-0.220287,-0.7800927
3277,0.8003972,-0.220287,-0.7800927
3280,0.8418618,-0.2571706,-0.8127698
3282,0.8418618,-0.2571706,-0.8127698
3284,0.8762568,-0.2887141,-0.8388348
3288,0.8762568,-0.2887141,-0.8388348
3290,0.8884541,-0.2947506,-0.8497278
3292,0.9110718,-0.309643,-0.8690815
3295,0.9110718,-0.309643,-0.8690815
3297,0.912574,-0.3045456,-0.8726766
3299,0.912574,-0.3045456,-0.8726766
3302,0.9191971,-0.302612,-0.8813781
3304,0.9191971,-0.2967354,-0.8835954
3306,0.9191971,-0.2967354,-0.8835954
3309,0.9236568,-0.2927522,-0.8904341
3311,0.9236568,-0.2927522,-0.8904341
3313,0.9000514,-0.2579304,-0.8771496
3316,0.9000514,-0.2579304,-0.8771496
3318,0.8702065,-0.2121421,-0.8600281
3320,0.8494976,-0.1855749,-0.8462666
3322,0.8494976,-0.1855749,-0.8462666
3325,0.82377,-0.1545051,-0.8273254
3328,0.82377,-0.1545051,-0.8273254
3330,0.8158936,-0.1480375,-0.8213912
3333,0.7999081,-0.1384764,-0.8081825
3335,0.7999081,-0.1384764,-0.8081825
3337,0.7878303,-0.1370561,-0.796476
3340,0.7878303,-0.1370561,-0.796476
3342,0.7843454,0.1398823,-0.7927822
3344,0.7843454,0.1398823,-0.7927822
3347,0.7778319,0.1467098,-0.7858408
3349,0.7760689,0.1493534,-0.7838463
3351,0.7760689,0.1493534,-0.7838463
3354,0.7865875,0.1440177,-0.7952467
3356,0.7865875,0.1440177,-0.7952467
3358,0.7974581,-0.1412742,-0.8060005
3361,0.8033255,-0.1412742,-0.8115651
3363,0.8033255,-0.1412742,-0.8115651
3365,0.798439,-0.1384764,-0.8067285
3368,0.798439,-0.1384764,-0.8067285
3371,0.8042993,-0.1426525,-0.8115651
3373,0.8042993,-0.1426525,-0.8115651
3376,0.8149337,-0.1557664,-0.8199606
3378,0.8247196,-0.1678588,-0.8268523
3380,0.8247196,-0.1678588,-0.8268523
3383,0.8423266,-0.1938267,-0.8383681
3385,0.8423266,-0.1938267,-0.8383681
3387,0.8490367,-0.2102893,-0.8409316
3390,0.8490367,-0.2102893,-0.8409316
3392,0.8616194,-0.235734,-0.8464977
3394,0.8699816,-0.2430897,-0.8527163
3397,0.8699816,-0.2430897,-0.8527163
3399,0.8842595,-0.2556444,-0.8632076
3401,0.8842595,-0.2556444,-0.8632076
3403,0.8915322,-0.2705197,-0.8661495
3406,0.8932863,-0.2776587,-0.8654715
3408,0.8932863,-0.2776587,-0.8654715
3410,0.892629,-0.2934199,-0.8598006
3414,0.892629,-0.2934199,-0.8598006
3416,0.8915322,-0.301316,-0.8559229
3418,0.8915322,-0.301316,-0.8559229
3421,0.8913127,-0.3171355,-0.8499581
3423,0.8924097,-0.324455,-0.8478836
3425,0.8924097,-0.324455,-0.8478836
3428,0.8950371,-0.3280534,-0.8492672
3430,0.8950371,-0.3280534,-0.8492672
3432,0.8965662,-0.3268584,-0.8520276
3435,0.8980926,-0.3208161,-0.85638
3437,0.8980926,-0.3208161,-0.85638
3439,0.8987461,-0.3177519,-0.858206
3442,0.8996165,-0.3146578,-0.8598006
3444,0.9011378,-0.3146578,-0.8616194
3446,0.9011378,-0.3146578,-0.8616194
3449,0.8983104,-0.3071049,-0.8609378
3451,0.8980926,-0.3051875,-0.861165
3453,0.8980926,-0.3051875,-0.861165
3457,0.8917516,-0.302612,-0.8547791
3459,0.8917516,-0.302612,-0.8547791
3461,0.8899944,-0.302612,-0.8531751
3464,0.8840382,-0.3019647,-0.8469599
3466,0.8793777,-0.301316,-0.8418618
3468,0.8702065,-0.302612,-0.8318071
3471,0.8702065,-0.302612,-0.8318071
3473,0.8656976,-0.3039024,-0.8270888
3475,0.8656976,-0.3039024,-0.8270888
3478,0.8561515,-0.3051875,-0.8163731
3480,0.8511084,-0.3051875,-0.811324
3482,0.8511084,-0.3051875,-0.811324
3485,0.8451096,-0.3077414,-0.8042993
3487,0.8451096,-0.3077414,-0.8042993
3489,0.8432553,-0.2967354,-0.8047857
3491,0.8432553,-0.2967354,-0.8047857
3494,0.8432553,-0.2954137,-0.8052719
3496,0.8343908,-0.3051875,-0.7925354
3499,0.8343908,-0.3051875,-0.7925354
3502,0.7684676,-0.2255535,-0.7506924
3504,0.7684676,-0.2255535,-0.7506924
3506,0.7228051,-0.1607126,-0.7200928
3509,0.6652907,-0.09487279,-0.6740565
3511,0.6652907,-0.09487279,-0.6740565
3513,0.6199199,0.1027921,-0.6271377
3516,0.6199199,0.1027921,-0.6271377
3518,0.563365,0.166689,-0.5546138
3520,0.563365,0.166689,-0.5546138
3523,0.5682068,0.3685048,-0.4545648
3525,0.5954478,0.4498048,-0.4154301
3527,0.5954478,0.4498048,-0.4154301
3530,0.6864257,0.6116581,-0.339197
3532,0.6864257,0.6116581,-0.339197
3534,0.7324861,0.6772422,-0.3077414
3537,0.8096339,0.7760689,-0.2609472
3539,0.8096339,0.7760689,-0.2609472
3542,0.8455727,0.8192443,-0.2406627
3545,0.8455727,0.8192443,-0.2406627
3547,0.8910931,0.872228,-0.2130625
3549,0.8910931,0.872228,-0.2130625
3552,0.9341894,0.9208986,-0.1876719
3554,0.9606267,0.948326,-0.1845175
3556,0.9606267,0.948326,-0.1845175
3559,1.01085,1.000342,-0.1735894
3561,1.01085,1.000342,-0.1735894
3563,1.048105,1.037598,-0.1758294
3566,1.048105,1.037598,-0.1758294
3568,1.067162,1.057029,-0.174713
3570,1.088045,1.0772,-0.1791368
3573,1.088045,1.0772,-0.1791368
3575,1.113291,1.103049,-0.1769387
3577,1.113291,1.103049,-0.1769387
3579,1.113818,1.102517,-0.1823843
3582,1.124484,1.112939,-0.1855749
3585,1.124484,1.112939,-0.1855749
3587,1.114169,1.103226,-0.1855749
3590,1.114169,1.103226,-0.1855749
3592,1.106591,1.097357,-0.1823843
3594,1.106591,1.097357,-0.1823843
3597,1.104999,1.097536,-0.1791368
3599,1.105353,1.098427,-0.1780411
3601,1.105353,1.098427,-0.1780411
3604,1.059618,1.047545,-0.2074791
3606,1.059618,1.047545,-0.2074791
3608,1.023164,1.005221,-0.2315465
3611,0.9553158,0.9200482,-0.2853053
3613,0.9553158,0.9200482,-0.2853053
3615,0.9247154,0.8784871,-0.3127867
3618,0.9247154,0.8784871,-0.3127867
3620,0.8204377,0.7412493,-0.3732531
3622,0.8204377,0.7412493,-0.3732531
3625,0.7472962,0.6296288,-0.4224361
3628,0.6602717,0.4215088,-0.5260038
3630,0.6602717,0.4215088,-0.5260038
3633,0.6543178,0.2478722,-0.6208661
3635,0.6543178,0.2478722,-0.6208661
3637,0.6673463,0.1724585,-0.660568
3640,0.7138155,0.1027921,-0.7225344
3642,0.7138155,0.1027921,-0.7225344
3644,0.7664279,-0.1532334,-0.7674484
3647,0.7664279,-0.1532334,-0.7674484
3649,0.7942618,-0.1978235,-0.7860898
3651,0.7942618,-0.1978235,-0.7860898
3654,0.8460353,-0.2776587,-0.8154138
3656,0.8693066,-0.3127867,-0.8275619
3658,0.8693066,-0.3127867,-0.8275619
3661,0.9024397,-0.3620769,-0.8434873
3663,0.9024397,-0.3620769,-0.8434873
3665,0.9257729,-0.3956476,-0.8545501
3667,0.9257729,-0.3956476,-0.8545501
3671,0.9385778,-0.4130683,-0.8607104
3673,0.9423231,-0.4177785,-0.8636609
3675,0.9423231,-0.4177785,-0.8636609
3678,0.9481196,-0.4242849,-0.8670527
3680,0.9481196,-0.4242849,-0.8670527
3682,0.9408684,-0.4187142,-0.8627541
3685,0.9339799,-0.4130683,-0.858206
3687,0.9339799,-0.4130683,-0.858206
3689,0.930201,-0.4102162,-0.8556943
3692,0.930201,-0.4102162,-0.8556943
3694,0.9234449,-0.4054182,-0.8504184
3696,0.9234449,-0.4054182,-0.8504184
3699,0.9208986,-0.4044518,-0.8478836
3701,0.9145018,-0.4015385,-0.842791
3703,0.9145018,-0.4015385,-0.842791
3706,0.9117159,-0.4000739,-0.8402332
3708,0.9117159,-0.4000739,-0.8402332
3710,0.9115012,-0.4015385,-0.8393012
3714,0.9069818,-0.4000739,-0.8353283
3716,0.9069818,-0.4000739,-0.8353283
3718,0.9069818,-0.4000739,-0.8353283
3721,0.9069818,-0.4000739,-0.8353283
3723,0.9084908,-0.4063823,-0.8336869
3725,0.9084908,-0.4063823,-0.8336869
3728,0.916212,-0.4210443,-0.8339216
3730,0.9123595,-0.410693,-0.8343908
3732,0.9123595,-0.410693,-0.8343908
3735,0.9106421,-0.4000739,-0.8369665
3737,0.9106421,-0.4000739,-0.8369665
3739,0.9043891,-0.4049353,-0.8273254
3742,0.9043891,-0.4049353,-0.8273254
3744,0.9041728,-0.409739,-0.825194
3746,0.8976567,-0.3995845,-0.8221055
3749,0.8976567,-0.3995845,-0.8221055
3751,0.8967844,-0.3986039,-0.8216294
3753,0.8967844,-0.3986039,-0.8216294
3756,0.8996165,-0.3961419,-0.8247196
3759,0.9022229,-0.3971285,-0.8270888
3761,0.9022229,-0.3971285,-0.8270888
3763,0.8888945,-0.3794918,-0.8201992
3766,0.8888945,-0.3794918,-0.8201992
3768,0.8833739,-0.3716771,-0.8175707
3770,0.8833739,-0.3716771,-0.8175707
3773,0.8751395,-0.3626169,-0.8127698
3775,0.8650193,-0.3527702,-0.8067285
3777,0.8650193,-0.3527702,-0.8067285
3780,0.8586619,-0.3483046,-0.8018627
3782,0.8586619,-0.3483046,-0.8018627
3784,0.8511084,-0.3449174,-0.7954926
3787,0.7348864,-0.1958353,-0.7257769
3789,0.7348864,-0.1958353,-0.7257769
3791,0.6985759,-0.1467098,-0.699975
3794,0.6985759,-0.1467098,-0.699975
3796,0.6361217,0.1101434,-0.6440698
3799,0.6361217,0.1101434,-0.6440698
3802,0.6148488,0.14537,-0.615485
3804,0.5931431,0.2454926,-0.5588315
3806,0.5931431,0.2454926,-0.5588315
3809,0.5928131,0.289391,-0.5366834
3811,0.5928131,0.289391,-0.5366834
3813,0.5993783,0.3620769,-0.4981082
3816,0.6055493,0.3921704,-0.4825446
3818,0.6055493,0.3921704,-0.4825446
3820,0.6183397,0.4392403,-0.4571402
3823,0.6183397,0.4392403,-0.4571402
3825,0.6299395,0.4739525,-0.4379019
3827,0.6299395,0.4739525,-0.4379019
3830,0.6283845,0.4768338,-0.4316007
3832,0.629007,0.4885893,-0.4196478
3834,0.629007,0.4885893,-0.4196478
3837,0.6224399,0.4829499,-0.4159008
3840,0.6224399,0.4829499,-0.4159008
3842,0.6158028,0.4805128,-0.4073442
3844,0.6158028,0.4805128,-0.4073442
3847,0.6090934,0.4731261,-0.4049353
3849,0.6023093,0.4685547,-0.3986039
3851,0.6023093,0.4685547,-0.3986039
3854,0.598071,0.4639383,-0.3956476
3856,0.598071,0.4639383,-0.3956476
3858,0.5977437,0.4652019,-0.3936644
3861,0.5938025,0.4626713,-0.3891652
3863,0.5938025,0.4626713,-0.3891652
3865,0.5911604,0.4609765,-0.3861367
3868,0.5911604,0.4609765,-0.3861367
3870,0.591822,0.4618246,-0.3856296
3872,0.591822,0.4618246,-0.3856296
3875,0.5947903,0.4639383,-0.386643
3877,0.6023093,0.4702222,-0.3891652
3879,0.6023093,0.4702222,-0.3891652
3883,0.6065179,0.4735395,-0.3901695
3885,0.6065179,0.4735395,-0.3901695
3887,0.614212,0.4809199,-0.393167
3890,0.6211812,0.4877876,-0.3951527
3892,0.6211812,0.4877876,-0.3951527
3894,0.6224399,0.4865827,-0.3981127
3897,0.6224399,0.4865827,-0.3981127
3899,0.6258884,0.4881886,-0.4005627
3901,0.6258884,0.4881886,-0.4005627
3904,0.6230683,0.4829499,-0.4020255
3906,0.6205508,0.4784724,-0.4039677
3908,0.6205508,0.4784724,-0.4039677
3911,0.6177064,0.4735395,-0.4049353
3913,0.6177064,0.4735395,-0.4049353
3915,0.6161205,0.4710537,-0.4054182
3918,0.615167,0.4689721,-0.4054182
3920,0.6100564,0.4614008,-0.4073442
3922,0.6045791,0.4515415,-0.4092611
3926,0.6045791,0.4515415,-0.4092611
3928,0.6029587,0.4493696,-0.4092611
3930,0.6029587,0.4493696,-0.4092611
3932,0.6045791,0.4480613,-0.4121198
3935,0.6049027,0.4484978,-0.4125943
3937,0.6049027,0.4484978,-0.4125943
3939,0.5997046,0.4419051,-0.4116447
3942,0.5997046,0.4419051,-0.4116447
3944,0.598071,0.4401304,-0.4111691
3946,0.598071,0.4401304,-0.4111691
3949,0.5908293,0.4302385,-0.4116447
3951,0.5841681,0.4219727,-0.4116447
3953,0.5841681,0.4219727,-0.4116447
3956,0.5811456,0.4173099,-0.4121198
3958,0.5811456,0.4173099,-0.4121198
3960,0.5787839,0.414487,-0.4116447
3963,0.5787839,0.4140146,-0.4125943
3965,0.5787839,0.4140146,-0.4125943
3968,0.5787839,0.414487,-0.4121198
3971,0.5787839,0.414487,-0.4121198
3973,0.591822,0.4302385,-0.4168407
3975,0.591822,0.4302385,-0.4168407
3978,0.5967609,0.4365593,-0.4182466
3980,0.6094146,0.4480613,-0.4252063
3982,0.6094146,0.4480613,-0.4252063
3985,0.6299395,0.4677188,-0.4356619
3987,0.6299395,0.4677188,-0.4356619
3989,0.6590852,0.4969283,-0.4480613
3992,0.6705639,0.5089886,-0.4528397
3994,0.6705639,0.5089886,-0.4528397
3996,0.6717301,0.5203939,-0.4458725
3999,0.6717301,0.5203939,-0.4458725
4001,0.6728944,0.5256317,-0.4427898
4003,0.6728944,0.5256317,-0.4427898
4006,0.6268256,0.4917827,-0.4173099
4008,0.6100564,0.4805128,-0.4073442
4011,0.6100564,0.4805128,-0.4073442
4013,0.6679325,0.5885065,-0.3588198
4016,0.6679325,0.5885065,-0.3588198
4018,0.6943616,0.6305605,-0.3409232
4020,0.6943616,0.6305605,-0.3409232
4023,0.717643,0.6711472,-0.3109043
4025,0.7597608,0.7359507,-0.2654082
4027,0.7597608,0.7359507,-0.2654082
4030,0.7730374,0.7579558,-0.2414744
4032,0.7730374,0.7579558,-0.2414744
4034,0.798684,0.7952467,-0.2036718
4037,0.8357967,0.8320423,-0.199792
4039,0.8357967,0.8320423,-0.199792
4041,0.8954742,0.8919711,-0.1897456
4044,0.8954742,0.8919711,-0.1897456
4046,0.9242921,0.9206861,-0.1780411
4048,0.9242921,0.9206861,-0.1780411
4051,0.9381608,0.9346082,-0.1713202
4054,0.9783881,0.9737772,-0.1678588
4056,0.9783881,0.9737772,-0.1678588
4059,0.9960293,0.991303,-0.1643245
4061,0.9960293,0.991303,-0.1643245
4063,1.031165,1.026601,-0.1570175
4066,1.049038,1.044739,-0.1545051
4068,1.049038,1.044739,-0.1545051
4070,1.063673,1.060541,-0.1426525
4073,1.063673,1.060541,-0.1426525
4075,1.064592,1.062016,-0.1356209
4077,1.064592,1.062016,-0.1356209
4080,1.041738,1.039858,-0.1235407
4082,1.036088,1.034765,-0.1186941
4084,1.036088,1.034765,-0.1186941
4087,1.025838,1.025266,-0.1101434
4089,1.025838,1.025266,-0.1101434
4091,1.021825,1.02125,-0.1046783
4094,1.014907,1.014907,-0.09691329
4097,1.014907,1.014907,-0.09691329
4099,1.012398,1.012591,-0.09487279
4101,1.012398,1.012591,-0.09487279
4104,1.009494,1.010269,-0.09278741
4106,1.009494,1.010269,-0.09278741
4108,1.008912,1.009688,-0.09065409
4111,1.029456,1.029836,-0.09487279
4113,1.029456,1.029836,-0.09487279
4115,1.046985,1.046985,-0.1008706
4118,1.046985,1.046985,-0.1008706
4120,1.086965,1.086065,-0.1119058
4122,1.086965,1.086065,-0.1119058
4125,1.108182,1.106768,-0.1170339
4127,1.13832,1.135911,-0.1282043
4129,1.13832,1.135911,-0.1282043
4132,1.149099,1.146201,-0.1341704
4134,1.149099,1.146201,-0.1341704
4136,1.168351,1.164661,-0.14537
4140,1.177361,1.173198,-0.1480375
4142,1.177361,1.173198,-0.1480375
4144,1.191569,1.186467,-0.1557664
4147,1.191569,1.186467,-0.1557664
4149,1.196649,1.191405,-0.1582588
4151,1.196649,1.191405,-0.1582588
4154,1.195995,1.191733,-0.1570175
4156,1.192226,1.188774,-0.1545051
4158,1.192226,1.188774,-0.1545051
4161,1.182667,1.181343,-0.14537
4163,1.182667,1.181343,-0.14537
4165,1.174532,1.174865,-0.1356209
4168,1.100385,1.099139,-0.1506579
4170,1.100385,1.099139,-0.1506579
4172,1.040234,1.036843,-0.1631294
4175,1.040234,1.036843,-0.1631294
4177,0.9191971,0.9106421,-0.1876719
4179,0.9191971,0.9106421,-0.1876719
4183,0.8598006,0.8478836,-0.199792
4185,0.6734757,0.6367366,-0.2586879
4187,0.6734757,0.6367366,-0.2586879
4189,0.5716401,0.5066768,-0.2987072
4192,0.5716401,0.5066768,-0.2987072
4194,0.453703,0.309643,-0.360452
4196,0.453703,0.309643,-0.360452
4199,0.4284154,0.2373883,-0.3841043
4201,0.4191812,0.14537,-0.4196478
4203,0.4191812,0.14537,-0.4196478
4206,0.4252063,0.1251145,-0.4329587
4208,0.4252063,0.1251145,-0.4329587
4210,0.4635163,-0.14537,-0.4656223
4213,0.4961402,-0.1876719,-0.4837596
4215,0.4961402,-0.1876719,-0.4837596
4217,0.5647526,-0.2776587,-0.5147229
4220,0.5647526,-0.2776587,-0.5147229
4222,0.607807,-0.332791,-0.5311863
4225,0.607807,-0.332791,-0.5311863
4228,0.6864257,-0.4284154,-0.55778
4230,0.7582139,-0.5308178,-0.5626699
4232,0.7582139,-0.5308178,-0.5626699
4235,0.7930291,-0.5760729,-0.5664824
4237,0.7930291,-0.5760729,-0.5664824
4239,0.6286958,-0.4396856,-0.4710537
4242,0.5733491,-0.3956476,-0.4374548
4244,0.5733491,-0.3956476,-0.4374548
4246,0.3886621,-0.234068,-0.3339648
4249,0.3886621,-0.234068,-0.3339648
4251,0.3268584,-0.1823843,-0.2960753
4253,0.3268584,-0.1823843,-0.2960753
4256,0.2046302,-0.08392937,-0.2121421
4258,0.1735894,0.08156469,-0.1813082
4260,0.1735894,0.08156469,-0.1813082
4263,0.1532334,0.1219466,-0.1235407
4265,0.1532334,0.1219466,-0.1235407
4268,0.1607126,0.1480375,-0.09891172
4271,0.191797,0.1968319,-0.04845664
4273,0.191797,0.1968319,-0.04845664
4275,0.20842,0.2148914,-0.02797646
4277,0.20842,0.2148914,-0.02797646
4280,0.235734,0.2414744,0
4282,0.235734,0.2414744,0
4284,0.2462884,0.25101,0
4287,0.2609472,0.2609472,0.03956468
4289,0.2609472,0.2609472,0.03956468
4291,0.2705197,0.2654082,0.05934703
4294,0.2705197,0.2654082,0.05934703
4296,0.1506579,0.1545051,0.01978234
4298,0.1506579,0.1545051,0.01978234
4301,0.01978234,-0.06255726,-0.01978234
4303,0.1426525,-0.1467098,-0.05934703
4305,0.1426525,-0.1467098,-0.05934703
4308,0.3146578,-0.3064671,-0.1101434
4311,0.3146578,-0.3064671,-0.1101434
4313,0.3946573,-0.3815487,-0.1370561
4316,0.5222706,-0.5031891,-0.174713
4318,0.5222706,-0.5031891,-0.174713
4320,0.6617518,-0.6370438,-0.2121421
4323,0.6617518,-0.6370438,-0.2121421
4325,0.717643,-0.6912548,-0.2272819
4327,0.717643,-0.6912548,-0.2272819
4330,0.8187665,-0.7920414,-0.2446942
4332,0.864793,-0.8388348,-0.25101
4334,0.864793,-0.8388348,-0.25101
4337,0.9389946,-0.9153573,-0.2564087
4339,0.9389946,-0.9153573,-0.2564087
4341,0.9999508,-0.978988,-0.2579304
4344,0.9837734,-0.966516,-0.2462884
4346,0.9837734,-0.966516,-0.2462884
4348,0.970355,-0.9583834,-0.2298502
4352,0.970355,-0.9583834,-0.2298502
4354,0.9705567,-0.9606267,-0.2238118
4356,0.9705567,-0.9606267,-0.2238118
4359,0.9200482,-0.9159984,-0.2007689
4361,0.8600281,-0.8629809,-0.1724585
4363,0.8600281,-0.8629809,-0.1724585
4365,0.825194,-0.8318071,-0.1570175
4368,0.825194,-0.8318071,-0.1570175
4370,0.7566639,-0.770502,-0.1266688
4372,0.7566639,-0.770502,-0.1266688
4375,0.7238871,-0.7404569,-0.1119058
4377,0.6807005,-0.7008132,-0.09487279
4379,0.6807005,-0.7008132,-0.09487279
4382,0.6676395,-0.6884183,-0.09065409
4384,0.6676395,-0.6884183,-0.09065409
4386,0.6376578,-0.6611602,-0.07661668
4389,0.6100564,-0.6367366,-0.06255726
4391,0.6100564,-0.6367366,-0.06255726
4393,0.6013339,-0.6293179,-0.05934703
4397,0.6013339,-0.6293179,-0.05934703
4399,0.5961047,-0.6240098,-0.05595291
4401,0.5961047,-0.6240098,-0.05595291
4404,0.5951191,-0.6230683,-0.05233916
4406,0.5990517,-0.6255757,-0.05595291
4408,0.5990517,-0.6255757,-0.05595291
4411,0.6010084,-0.6274496,-0.05595291
4413,0.6010084,-0.6274496,-0.05595291
4415,0.6019843,-0.628073,-0.05595291
4418,0.6032831,-0.6299395,-0.04845664
4420,0.6032831,-0.6299395,-0.04845664
4422,0.6036074,-0.63025,-0.05233916
4425,0.6036074,-0.63025,-0.05233916
4427,0.6049027,-0.6321102,-0.05233916
4429,0.6049027,-0.6321102,-0.05233916
4432,0.6071628,-0.6351982,-0.04845664
4434,0.608772,-0.6367366,-0.05233916
4436,0.608772,-0.6367366,-0.05233916
4440,0.6071628,-0.6361217,-0.04845664
4442,0.6071628,-0.6361217,-0.04845664
4444,0.6074851,-0.6364292,-0.04423466
4447,0.6016592,-0.6318005,-0.04845664
4449,0.6016592,-0.6318005,-0.04845664
4451,0.6003569,-0.6308707,-0.03956468
4453,0.6003569,-0.6308707,-0.03956468
4456,0.5977437,-0.629007,-0.03956468
4458,0.5977437,-0.629007,-0.03956468
4460,0.5970887,-0.629007,-0.03956468
4463,0.6010084,-0.6327289,-0.02797646
4465,0.6010084,-0.6327289,-0.02797646
4467,0.6029587,-0.6348901,-0.02797646
4470,0.6071628,-0.6379647,-0.02797646
4472,0.6110179,-0.6410245,0
4474,0.6110179,-0.6410245,0
4477,0.6145305,-0.6437659,0
4480,0.6233823,-0.6510199,-0.02797646
4482,0.6233823,-0.6510199,-0.02797646
4485,0.6299395,-0.6567059,0
4487,0.6299395,-0.6567059,0
4489,0.633656,-0.6599753,0
4492,0.6404136,-0.6649964,0
4494,0.6404136,-0.6649964,0
4496,0.6540186,-0.6772422,0
4499,0.6540186,-0.6772422,0
4501,0.6590852,-0.6818494,0
4503,0.6590852,-0.6818494,0
4506,0.5532007,-0.577091,0.05934703
4508,0.5154827,-0.5385033,0.07661668
4510,0.5154827,-0.5385033,0.07661668
4513,0.4228991,-0.4387946,0.1282043
4515,0.4228991,-0.4387946,0.1282043
4517,0.3911712,-0.4015385,0.1493534
4520,0.3386196,-0.3333784,0.1823843
4523,0.3386196,-0.3333784,0.1823843
4525,0.302612,-0.2783625,0.2065338
4528,0.302612,-0.2783625,0.2065338
4530,0.2832403,-0.2422834,0.2246844
4532,0.2832403,-0.2422834,0.2246844
4535,0.2741124,-0.2007689,0.254109
4537,0.2853053,-0.1845175,0.2762456
4539,0.2853053,-0.1845175,0.2762456
4541,0.2947506,0.1855749,0.2866737
4544,0.2947506,0.1855749,0.2866737
4546,0.4405747,0.2934199,0.3674413
4548,0.5166202,0.3642322,0.4000739
4551,0.5166202,0.3642322,0.4000739
4553,0.7168246,0.5556712,0.4792896
4555,0.7168246,0.5556712,0.4792896
4558,0.8011303,0.635814,0.5112901
4560,0.8011303,0.635814,0.5112901
4562,0.9464671,0.7702479,0.5699261
4566,1.0093,0.8268523,0.5967609
4568,1.0093,0.8268523,0.5967609
4570,1.113115,0.920261,0.6413296
4573,1.113115,0.920261,0.6413296
4575,1.156737,0.9594038,0.6599753
4577,1.156737,0.9594038,0.6599753
4580,1.234163,1.027744,0.694925
4582,1.306711,1.091636,0.7284679
4584,1.306711,1.091636,0.7284679
4587,1.324265,1.102339,0.7430948
4589,1.324265,1.102339,0.7430948
4591,1.366447,1.133842,0.7715172
4594,1.376719,1.135566,0.7873334
4596,1.376719,1.135566,0.7873334
4598,1.407087,1.151991,0.8168523
4601,1.407087,1.151991,0.8168523
4603,1.432721,1.164997,0.842791
4605,1.432721,1.164997,0.842791
4609,1.444556,1.170861,0.8554656
4611,1.345957,1.059618,0.8411642
4613,1.345957,1.059618,0.8411642
4616,1.259587,0.9653005,0.8213912
4618,1.259587,0.9653005,0.8213912
4620,1.085164,0.7707559,0.7793398
4622,1.002687,0.6749268,0.758472
4625,1.002687,0.6749268,0.758472
4627,0.9404523,0.5997046,0.742568
4629,0.9404523,0.5997046,0.742568
4632,0.8079404,0.4270431,0.7044336
4634,0.8079404,0.4270431,0.7044336
4636,0.8079404,0.4270431,0.7044336
4639,0.7480813,0.3286494,0.6935157
4641,0.7480813,0.3286494,0.6935157
4643,0.7124436,0.2631872,0.6855699
4646,0.7124436,0.2631872,0.6855699
4648,0.804056,0.3171355,0.760533
4651,0.804056,0.3171355,0.760533
4654,0.840466,0.3397734,0.7893192
4656,0.8221055,0.2748253,0.7947544
4658,0.8221055,0.2748253,0.7947544
4661,0.8192443,0.2556444,0.798684
4663,0.8192443,0.2556444,0.798684
4665,0.7947544,0.2074791,0.7863387
4668,0.7885751,-0.249446,0.7659171
4670,0.7885751,-0.249446,0.7659171
4672,0.7979487,-0.3090104,0.7530347
4675,0.7979487,-0.3090104,0.7530347
4677,0.8467289,-0.4502396,0.7330202
4679,0.8467289,-0.4502396,0.7330202
4682,0.881156,-0.5222706,0.7252374
4684,0.9569532,-0.6531205,0.7143636
4686,0.9569532,-0.6531205,0.7143636
4689,0.9972074,-0.7132671,0.711069
4691,0.9972074,-0.7132671,0.711069
4694,1.067896,-0.8072135,0.711894
4697,1.099139,-0.8446465,0.7149112
4699,1.099139,-0.8446465,0.7149112
4701,1.146542,-0.8945997,0.7260464
4704,1.146542,-0.8945997,0.7260464
4706,1.164325,-0.910857,0.7324861
4708,1.164325,-0.910857,0.7324861
4710,1.199589,-0.9458466,0.7433581
4713,1.211115,-0.9501812,0.7553698
4715,1.211115,-0.9501812,0.7553698
4717,1.239384,-0.9697499,0.7745547
4720,1.239384,-0.9697499,0.7745547
4722,1.247881,-0.9608305,0.7981939
4724,1.255853,-0.9624583,0.8076981
4727,1.255853,-0.9624583,0.8076981
4729,1.26083,-0.9460534,0.8334522
4731,1.26083,-0.9460534,0.8334522
4734,1.266559,-0.9443973,0.8439512
4737,1.266559,-0.9443973,0.8439512
4739,1.27993,-0.9339799,0.8737969
4742,1.289071,-0.9346082,0.8858072
4744,1.289071,-0.9346082,0.8858072
4746,1.305363,-0.9264069,0.9168525
4749,1.305363,-0.9264069,0.9168525
4751,1.315071,-0.9268292,0.9295698
4753,1.325299,-0.9297802,0.9408684
4756,1.292558,-0.8199606,0.9950465
4758,1.2698,-0.6620474,1.078834
4760,1.2698,-0.6620474,1.078834
4763,1.265941,-0.555319,1.133151
4765,1.265941,-0.555319,1.133151
4767,1.286944,-0.3986039,1.219167
4770,1.343629,-0.509757,1.242696
4772,1.343629,-0.509757,1.242696
4774,1.442115,-0.6737661,1.282832
4777,1.442115,-0.6737661,1.282832
4780,1.50285,-0.7974581,1.289223
4782,1.560222,-0.9000514,1.296941
4785,1.612162,-0.9851648,1.305363
4787,1.669295,-1.074654,1.303713
4789,1.669295,-1.074654,1.303713
4792,1.694544,-1.109946,1.305513
4794,1.694544,-1.109946,1.305513
4796,1.734832,-1.159272,1.311196
4798,1.76669,-1.192061,1.318934
4801,1.76669,-1.192061,1.318934
4803,1.778943,-1.198773,1.32648
4805,1.778943,-1.198773,1.32648
4808,1.804827,-1.214987,1.342609
4810,1.804827,-1.214987,1.342609
4812,1.815099,-1.210307,1.359699
4815,1.837815,-1.208528,1.390016
4817,1.837815,-1.208528,1.390016
4819,1.849809,-1.210307,1.403606
4823,1.849809,-1.210307,1.403606
4825,1.874819,-1.22013,1.426562
4827,1.874819,-1.22013,1.426562
4830,1.883152,-1.221252,1.435996
4832,1.902384,-1.227645,1.454949
4834,1.902384,-1.227645,1.454949
4837,1.913564,-1.231465,1.466738
4839,1.913564,-1.231465,1.466738
4841,1.93654,-1.241435,1.489115
4844,1.952242,-1.245527,1.506362
4846,1.952242,-1.245527,1.506362
4848,1.958147,-1.245684,1.513619
4851,1.958147,-1.245684,1.513619
4853,1.958947,-1.233053,1.524826
4855,1.958947,-1.233053,1.524826
4858,1.955747,-1.222213,1.529311
4860,1.948629,-1.201056,1.53697
4862,1.948629,-1.201056,1.53697
4866,1.943903,-1.18366,1.544464
4868,1.943903,-1.18366,1.544464
4870,1.937449,-1.170694,1.54649
4873,1.932696,-1.154027,1.553056
4875,1.932696,-1.154027,1.553056
4877,1.926103,-1.142781,1.553434
4880,1.926103,-1.142781,1.553434
4882,1.920506,-1.128652,1.557083
4884,1.920506,-1.128652,1.557083
4886,1.9202,-1.124484,1.559845
4889,1.916017,-1.116801,1.560472
4891,1.916017,-1.116801,1.560472
4893,1.911824,-1.111531,1.559594
4896,1.911824,-1.111531,1.559594
4898,1.909469,-1.108888,1.558716
4900,1.902486,-1.100207,1.55658
4903,1.902486,-1.100207,1.55658
4905,1.89651,-1.090919,1.5557
4908,1.89651,-1.090919,1.5557
4911,1.895685,-1.088405,1.556706
4913,1.895685,-1.088405,1.556706
4915,1.890102,-1.081913,1.554441
4918,1.88948,-1.080284,1.554693
4920,1.88948,-1.080284,1.554693
4922,1.882528,-1.075746,1.549524
4925,1.882528,-1.075746,1.549524
4927,1.88128,-1.074654,1.548639
4929,1.88128,-1.074654,1.548639
4932,1.872521,-1.068262,1.542308
4934,1.863932,-1.060725,1.536842
4936,1.863932,-1.060725,1.536842
4939,1.859201,-1.056473,1.534166
4941,1.859201,-1.056473,1.534166
4943,1.854563,-1.051461,1.531741
4946,1.843131,-1.030216,1.533145
4948,1.843131,-1.030216,1.533145
4951,1.839731,-1.022782,1.534294
4954,1.839731,-1.022782,1.534294
4956,1.82949,-1.004831,1.534804
4958,1.82949,-1.004831,1.534804
4961,1.821234,-0.9903157,1.535186
4963,1.817469,-0.9837734,1.535186
4965,1.817469,-0.9837734,1.535186
4968,1.814883,-0.9785881,1.535823
4970,1.814883,-0.9785881,1.535823
4972,1.80851,-0.9689425,1.534676
4974,1.806778,-0.9657058,1.535059
4977,1.806778,-0.9657058,1.535059
4979,1.801897,-0.9715644,1.525083
4981,1.801897,-0.9715644,1.525083
4984,1.800702,-0.9737772,1.522257
4986,1.800702,-0.9737772,1.522257
4988,1.796023,-0.96773,1.520714
4992,1.794824,-0.9653005,1.520714
4994,1.794824,-0.9653005,1.520714
4996,1.789145,-0.9685385,1.511679
4999,1.789145,-0.9685385,1.511679
5001,1.787613,-0.9697499,1.508958
5003,1.783886,-0.9749822,1.501026
5006,1.783886,-0.9749822,1.501026
5008,1.782899,-0.9769872,1.498547
5010,1.782899,-0.9769872,1.498547
5013,1.781691,-0.9717657,1.500504
5015,1.781691,-0.9717657,1.500504
5017,1.781581,-0.9699516,1.501808
5020,1.781032,-0.9705567,1.500374
5022,1.781032,-0.9705567,1.500374
5024,1.780922,-0.9721684,1.498547
5027,1.780922,-0.9721684,1.498547
5029,1.780153,-0.9767869,1.494362
5031,1.780153,-0.9767869,1.494362
5035,1.780043,-0.9813836,1.490428
5037,1.777512,-0.9757847,1.491085
5039,1.777512,-0.9757847,1.491085
5042,1.774758,-0.9683364,1.49279
5044,1.774758,-0.9683364,1.49279
5046,1.771999,-0.9669209,1.490297
5049,1.768793,-0.9655032,1.487142
5051,1.768793,-0.9655032,1.487142
5053,1.762253,-0.9544962,1.486616
5056,1.762253,-0.9544962,1.486616
5058,1.760142,-0.9512104,1.486879
5060,1.760142,-0.9512104,1.486879
5062,1.755243,-0.9466738,1.483849
5065,1.750889,-0.9446045,1.479623
5067,1.750889,-0.9446045,1.479623
5069,1.747197,-0.9431533,1.476313
5072,1.747197,-0.9431533,1.476313
5074,1.742261,-0.9414921,1.471533
5076,1.741138,-0.9435682,1.468338
5080,1.740351,-0.9454328,1.466204
5082,1.739789,-0.9470872,1.464468
5084,1.739789,-0.9470872,1.464468
5087,1.739001,-0.9493572,1.46206
5089,1.739001,-0.9493572,1.46206
5091,1.738888,-0.9503872,1.461123
5094,1.737763,-0.9458466,1.462596
5096,1.737763,-0.9458466,1.462596
5098,1.736974,-0.9419076,1.464601
5101,1.736974,-0.9419076,1.464601
5103,1.736411,-0.939828,1.465403
5105,1.736411,-0.939828,1.465403
5108,1.736185,-0.9402443,1.464601
5110,1.735847,-0.9427382,1.46273
5112,1.735847,-0.9427382,1.46273
5115,1.735847,-0.9439828,1.461659
5117,1.735847,-0.9439828,1.461659
5120,1.737312,-0.9423231,1.464468
5123,1.739563,-0.9383693,1.470202
5125,1.739563,-0.9383693,1.470202
5127,1.740576,-0.9366996,1.472596
5130,1.740576,-0.9366996,1.472596
5132,1.7381,-0.9348176,1.471001
5134,1.7381,-0.9348176,1.471001
5137,1.736185,-0.9352362,1.468338
5139,1.735396,-0.9360726,1.466738
5141,1.735396,-0.9360726,1.466738
5144,1.737312,-0.9429458,1.464468
5146,1.737312,-0.9429458,1.464468
5148,1.741587,-0.9522384,1.463398
5150,1.74316,-0.9555206,1.462863
5153,1.74316,-0.9555206,1.462863
5155,1.725671,-0.9414921,1.451043
5157,1.725671,-0.9414921,1.451043
5160,1.719194,-0.9358636,1.446721
5163,1.68957,-0.8228193,1.480019
5165,1.671287,-0.7300779,1.507401
5168,1.654576,-0.5496522,1.56398
5170,1.654576,-0.5496522,1.56398
5172,1.65564,-0.464781,1.592253
5175,1.65564,-0.464781,1.592253
5177,1.668239,-0.3397734,1.636021
5179,1.691538,-0.2470816,1.675847
5182,1.691538,-0.2470816,1.675847
5184,1.703758,-0.2185032,1.691885
5186,1.703758,-0.2185032,1.691885
5189,1.723287,-0.1928145,1.714521
5191,1.723287,-0.1928145,1.714521
5193,1.7328,0.1907741,1.724196
5196,1.743048,0.1958353,1.733704
5198,1.743048,0.1958353,1.733704
5200,1.754908,0.2093567,1.743945
5203,1.754908,0.2093567,1.743945
5206,1.755354,0.2130625,1.743721
5208,1.755354,0.2130625,1.743721
5211,1.760253,0.2255535,1.746749
5213,1.756914,0.2315465,1.742374
5215,1.756914,0.2315465,1.742374
5218,1.757583,0.2382111,1.742149
5220,1.757583,0.2382111,1.742149
5222,1.751671,0.2406627,1.735622
5225,1.751113,0.2438933,1.734381
5227,1.751113,0.2438933,1.734381
5229,1.743272,0.2478722,1.725897
5231,1.743272,0.2478722,1.725897
5234,1.741924,0.2517883,1.723969
5236,1.741924,0.2517883,1.723969
5238,1.733478,0.2517883,1.71532
5241,1.731331,0.2579304,1.712236
5243,1.731331,0.2579304,1.712236
5245,1.728617,0.2594432,1.709262
5249,1.728617,0.2594432,1.709262
5251,1.727484,0.2676108,1.706971
5253,1.724082,0.2668786,1.703873
5256,1.724082,0.2668786,1.703873
5258,1.721697,0.2705197,1.700884
5260,1.721697,0.2705197,1.700884
5263,1.717942,0.2676108,1.697313
5265,1.717942,0.2676108,1.697313
5267,1.714293,0.2661444,1.693851
5270,1.708919,0.2639296,1.688759
5272,1.708919,0.2639296,1.688759
5274,1.707888,0.2646699,1.687832
5277,1.707888,0.2646699,1.687832
5279,1.705021,0.2631872,1.685163
5281,1.704791,0.2639296,1.684699
5284,1.704791,0.2639296,1.684699
5286,1.703183,0.2639296,1.683188
5288,1.703183,0.2639296,1.683188
5292,1.702149,0.2631872,1.682141
5294,1.702149,0.2631872,1.682141
5296,1.699848,0.2624426,1.679929
5299,1.698696,0.261696,1.678997
5301,1.698696,0.261696,1.678997
5303,1.697198,0.2624426,1.677481
5306,1.697198,0.2624426,1.677481
5308,1.696852,0.261696,1.677248
5310,1.696852,0.261696,1.677248
5313,1.696736,0.261696,1.677014
5315,1.696967,0.261696,1.677364
5317,1.696967,0.261696,1.677364
5319,1.699387,0.2624426,1.679813
5322,1.699387,0.2624426,1.679813
5324,1.702953,0.2639296,1.683188
5326,1.703413,0.2624426,1.684118
5329,1.703413,0.2624426,1.684118
5331,1.70525,0.2624426,1.686208
5334,1.70525,0.2624426,1.686208
5337,1.705709,0.261696,1.686672
5339,1.705709,0.261696,1.686672
5341,1.70548,0.261696,1.686556
5344,1.704447,0.2601963,1.68586
5346,1.704447,0.2601963,1.68586
5348,1.703758,0.2571706,1.685163
5351,1.703758,0.2571706,1.685163
5353,1.703298,0.254109,1.685047
5355,1.703643,0.2525642,1.685279
5358,1.703643,0.2525642,1.685279
5360,1.703068,0.2478722,1.685279
5362,1.703068,0.2478722,1.685279
5365,1.702494,0.2446942,1.685047
5367,1.702494,0.2446942,1.685047
5369,1.701229,0.2414744,1.683885
5372,1.699502,0.2373883,1.682839
5374,1.699502,0.2373883,1.682839
5377,1.699387,0.2365626,1.68249
5380,1.699387,0.2365626,1.68249
5382,1.699502,0.2349025,1.683188
5384,1.699502,0.2349025,1.683188
5387,1.699157,0.234068,1.683188
5389,1.698811,0.2332305,1.682839
5391,1.698811,0.2332305,1.682839
5394,1.697544,0.2315465,1.681908
5396,1.697544,0.2315465,1.681908
5398,1.696736,0.2306999,1.681676
5401,1.696506,0.2289973,1.681792
5403,1.696506,0.2289973,1.681792
5405,1.696736,0.2289973,1.682025
5407,1.696736,0.2289973,1.682025
5410,1.697428,0.2289973,1.682955
5412,1.697428,0.2289973,1.682955
5414,1.698005,0.2332305,1.683188
5417,1.698235,0.234068,1.683537
5420,1.698235,0.234068,1.683537
5422,1.698927,0.2365626,1.684002
5425,1.698927,0.2365626,1.684002
5427,1.699157,0.2382111,1.68435
5429,1.698696,0.2406627,1.683653
5432,1.698696,0.2406627,1.683653
5434,1.697198,0.2398483,1.682141
5436,1.697198,0.2398483,1.682141
5439,1.695929,0.2390311,1.680977
5441,1.695929,0.2390311,1.680977
5443,1.694428,0.2390311,1.679813
5446,1.692464,0.2382111,1.677948
5448,1.692464,0.2382111,1.677948
5450,1.690034,0.2382111,1.67538
5453,1.690034,0.2382111,1.67538
5455,1.687832,0.2422834,1.673159
5457,1.687136,0.2438933,1.67234
5460,1.687136,0.2438933,1.67234
5463,1.681676,0.2406627,1.666831
5465,1.681676,0.2406627,1.666831
5468,1.678181,0.2390311,1.663423
5470,1.678181,0.2390311,1.663423
5472,1.675964,0.2398483,1.661068
5475,1.672691,0.2382111,1.657766
5477,1.672691,0.2382111,1.657766
5479,1.668943,0.2373883,1.653984
5482,1.668943,0.2373883,1.653984
5484,1.66777,0.2373883,1.652801
5486,1.66777,0.2373883,1.652801
5489,1.677131,0.2264194,1.664011
5491,1.680861,0.2229358,1.668357
5493,1.680861,0.2229358,1.668357
5495,1.682141,0.2229358,1.669764
5498,1.682141,0.2229358,1.669764
5500,1.683537,0.2238118,1.671287
5502,1.682839,0.2281412,1.670467
5506,1.682839,0.2281412,1.670467
5508,1.68249,0.23239,1.669412
5510,1.68249,0.23239,1.669412
5513,1.688875,0.2211734,1.677714
5515,1.688875,0.2211734,1.677714
5517,1.691654,0.2176059,1.680977
5520,1.690265,0.2176059,1.679463
5522,1.690265,0.2176059,1.679463
5524,1.690034,0.2185032,1.679463
5527,1.690034,0.2185032,1.679463
5529,1.689223,0.2211734,1.678064
5531,1.688412,0.2264194,1.676898
5534,1.688412,0.2264194,1.676898
5536,1.688412,0.2264194,1.676898
5538,1.688412,0.2264194,1.676898
5541,1.688412,0.2264194,1.676898
5543,1.688412,0.2264194,1.676898
5545,1.687948,0.2306999,1.675964
5549,1.688064,0.235734,1.675614
5551,1.688064,0.235734,1.675614
5553,1.6876,0.2390311,1.674562
5556,1.6876,0.2390311,1.674562
5558,1.687368,0.2454926,1.673978
5560,1.687368,0.2454926,1.673978
5563,1.687832,0.2478722,1.673861
5565,1.688991,0.25101,1.674679
5567,1.688991,0.25101,1.674679
5570,1.690613,0.2525642,1.675964
5572,1.690613,0.2525642,1.675964
5574,1.691654,0.2533378,1.677014
5577,1.692811,0.2548778,1.677831
5579,1.692811,0.2548778,1.677831
5581,1.693157,0.2571706,1.678064
5583,1.693157,0.2571706,1.678064
5586,1.694197,0.2594432,1.67888
5588,1.694197,0.2594432,1.67888
5591,1.695352,0.261696,1.679696
5594,1.695929,0.261696,1.680279
5596,1.695929,0.261696,1.680279
5598,1.695352,0.2639296,1.679696
5601,1.695352,0.2639296,1.679696
5603,1.695352,0.2646699,1.679463
5605,1.696621,0.2676108,1.680279
5608,1.696621,0.2676108,1.680279
5610,1.697198,0.268341,1.680861
5612,1.697198,0.268341,1.680861
5615,1.69789,0.268341,1.681559
5617,1.69789,0.268341,1.681559
5619,1.698351,0.268341,1.682374
5622,1.698351,0.2668786,1.68249
5624,1.698351,0.2668786,1.68249
5626,1.699042,0.2668786,1.683072
5629,1.699042,0.2668786,1.683072
5632,1.699387,0.2690692,1.682955
5634,1.700193,0.2705197,1.683769
5637,1.700193,0.2705197,1.683769
5639,1.701344,0.2712421,1.684815
5641,1.701344,0.2712421,1.684815
5644,1.701689,0.2705197,1.685279
5646,1.701689,0.2705197,1.685279
5648,1.701804,0.2697954,1.685395
5651,1.702034,0.2690692,1.68586
5653,1.702034,0.2690692,1.68586
5655,1.700999,0.268341,1.684815
5658,1.700999,0.268341,1.684815
5660,1.700654,0.268341,1.684699
5662,1.700654,0.268341,1.684699
5665,1.699157,0.2697954,1.683072
5667,1.696852,0.2697954,1.680628
5669,1.696852,0.2697954,1.680628
5671,1.695467,0.2690692,1.679114
5675,1.695467,0.2690692,1.679114
5677,1.692117,0.2676108,1.675964
5679,1.689107,0.2661444,1.673159
5682,1.689107,0.2661444,1.673159
5684,1.688064,0.2654082,1.672223
5686,1.688064,0.2654082,1.672223
5689,1.692348,0.2486604,1.679114
5691,1.692348,0.2486604,1.679114
5693,1.694082,0.2422834,1.681792
5696,1.699272,0.2298502,1.688412
5698,1.699272,0.2298502,1.688412
5700,1.701344,0.2255535,1.691076
5703,1.702839,0.2220564,1.692926
5705,1.704332,0.2193969,1.694659
5707,1.706627,0.2158,1.697544
5710,1.706627,0.2158,1.697544
5712,1.707888,0.2167048,1.698696
5714,1.707888,0.2167048,1.698696
5718,1.709835,0.2158,1.700884
5720,1.709835,0.2158,1.700884
5722,1.711093,0.2148914,1.702034
5725,1.711551,0.2158,1.702609
5727,1.711551,0.2158,1.702609
5729,1.711894,0.2176059,1.702839
5732,1.711894,0.2176059,1.702839
5734,1.712465,0.2176059,1.703413
5736,1.712236,0.2176059,1.703528
5739,1.712236,0.2176059,1.703528
5741,1.712579,0.2167048,1.703643
5743,1.712579,0.2167048,1.703643
5746,1.711551,0.2158,1.702724
5748,1.711551,0.2158,1.702724
5750,1.710407,0.2158,1.701574
5753,1.709262,0.2158,1.700539
5755,1.709262,0.2158,1.700539
5757,1.708002,0.2158,1.699387
5760,1.708002,0.2158,1.699387
5763,1.707659,0.2158,1.699042
5765,1.707659,0.2158,1.699042
5767,1.707659,0.2167048,1.699042
5770,1.707544,0.2167048,1.698696
5772,1.707544,0.2167048,1.698696
5774,1.707429,0.2167048,1.698696
5777,1.707429,0.2167048,1.698696
5779,1.707544,0.2176059,1.698811
5781,1.707659,0.2158,1.699157
5784,1.707773,0.2158,1.699157
5786,1.707544,0.2148914,1.699042
5788,1.707544,0.2148914,1.699042
5791,1.707429,0.2139789,1.698696
5793,1.707429,0.2139789,1.698696
5795,1.705365,0.2112177,1.696736
5798,1.702494,0.2074791,1.693851
5800,1.702494,0.2074791,1.693851
5803,1.699618,0.2036718,1.691076
5806,1.699618,0.2036718,1.691076
5808,1.697544,0.2017412,1.688991
5810,1.692926,0.1988102,1.684234
5813,1.692926,0.1988102,1.684234
5815,1.690728,0.1968319,1.682141
5817,1.690728,0.1968319,1.682141
5820,1.685279,0.1938267,1.676781
5822,1.685279,0.1938267,1.676781
5824,1.68249,0.1938267,1.673861
5827,1.676081,0.191797,1.667418
5829,1.676081,0.191797,1.667418
5831,1.672574,0.191797,1.664129
5834,1.672574,0.191797,1.664129
5836,1.670115,0.191797,1.661539
5838,1.670115,0.191797,1.661539
5840,1.664599,0.1897456,1.655876
5843,1.661893,0.1897456,1.653156
5846,1.661893,0.1897456,1.653156
5848,1.659772,0.1907741,1.651142
5851,1.659772,0.1907741,1.651142
5853,1.655049,0.1907741,1.646276
5855,1.652564,0.1907741,1.644015
5858,1.652564,0.1907741,1.644015
5860,1.650549,0.191797,1.641991
5862,1.650549,0.191797,1.641991
5865,1.647939,0.1938267,1.639486
5867,1.647939,0.1938267,1.639486
5869,1.647107,0.1948336,1.638411
5872,1.64211,0.1968319,1.633507
5874,1.64211,0.1968319,1.633507
5876,1.64044,0.1968319,1.631828
5879,1.64044,0.1968319,1.631828
5881,1.634465,0.1988102,1.626062
5883,1.632428,0.1988102,1.623774
5886,1.632428,0.1988102,1.623774
5889,1.631109,0.1988102,1.622447
5891,1.631109,0.1988102,1.622447
5894,1.629188,0.199792,1.620516
5896,1.629188,0.199792,1.620516
5898,1.628107,0.2007689,1.619671
5901,1.627024,0.2027088,1.618341
5903,1.627024,0.2027088,1.618341
5905,1.62546,0.2027088,1.616768
5908,1.62546,0.2027088,1.616768
5910,1.64211,0.2255535,1.631589
5912,1.658474,0.254109,1.644729
5915,1.658474,0.254109,1.644729
5917,1.697659,0.3310224,1.672457
5919,1.697659,0.3310224,1.672457
5922,1.71965,0.3748225,1.686672
5924,1.71965,0.3748225,1.686672
5926,1.739451,0.4140146,1.698581
5928,1.720787,0.3891652,1.685047
5932,1.720787,0.3891652,1.685047
5934,1.714749,0.3815487,1.680628
5936,1.714749,0.3815487,1.680628
5939,1.706971,0.3727285,1.674445
5941,1.706971,0.3727285,1.674445
5943,1.72147,0.4025119,1.683072
5946,1.761031,0.4841639,1.704332
5948,1.761031,0.4841639,1.704332
5950,1.777732,0.5169988,1.712694
5953,1.777732,0.5169988,1.712694
5955,1.808077,0.5740312,1.727371
5957,1.821127,0.5974163,1.733365
5960,1.821127,0.5974163,1.733365
5962,1.843874,0.6373509,1.743945
5964,1.843874,0.6373509,1.743945
5967,1.853719,0.6546168,1.748317
5969,1.853719,0.6546168,1.748317
5971,1.861515,0.6676395,1.751783
5975,1.876072,0.6923862,1.758139
5977,1.876072,0.6923862,1.758139
5979,1.883256,0.7044336,1.761142
5982,1.883256,0.7044336,1.761142
5984,1.88554,0.7129927,1.760475
5986,1.885125,0.7165515,1.758807
5989,1.885125,0.7165515,1.758807
5991,1.886163,0.721179,1.757917
5993,1.886163,0.721179,1.757917
5996,1.822201,0.649214,1.719308
5998,1.822201,0.649214,1.719308
6000,1.771667,0.5928131,1.6876
6003,1.731331,0.5489398,1.661422
6005,1.731331,0.5489398,1.661422
6007,1.62534,0.4316007,1.589424
6010,1.62534,0.4316007,1.589424
6012,1.579172,0.3861367,1.554945
6014,1.579172,0.3861367,1.554945
6017,1.542181,0.3555328,1.525468
6020,1.50766,0.3363003,1.49554
6022,1.50766,0.3363003,1.49554
6024,1.479358,0.3262592,1.46967
6027,1.479358,0.3262592,1.46967
6029,1.456965,0.3214254,1.448073
6031,1.438038,-0.3202056,1.42944
6034,1.42134,-0.3214254,1.4125
6036,1.406809,-0.3226406,1.397738
6038,1.406809,-0.3226406,1.397738
6041,1.393953,-0.3250574,1.384374
6043,1.393953,-0.3250574,1.384374
6045,1.382676,-0.3280534,1.372306
6048,1.365587,-0.329838,1.354797
6050,1.365587,-0.329838,1.354797
6052,1.358115,-0.3280534,1.34741
6055,1.358115,-0.3280534,1.34741
6057,1.351036,-0.3280534,1.340129
6060,1.344211,-0.3286494,1.333102
6063,1.344211,-0.3286494,1.333102
6065,1.334715,-0.3250574,1.323821
6067,1.334715,-0.3250574,1.323821
6070,1.331633,-0.3220336,1.321158
6072,1.331633,-0.3220336,1.321158
6074,1.328396,-0.3208161,1.317895
6077,1.324856,-0.3202056,1.314476
6079,1.324856,-0.3202056,1.314476
6081,1.31745,-0.3165179,1.307161
6084,1.31745,-0.3165179,1.307161
6086,1.313731,-0.315279,1.303563
6088,1.308507,-0.311533,1.298901
6091,1.308507,-0.311533,1.298901
6093,1.307011,-0.3102743,1.297544
6095,1.307011,-0.3102743,1.297544
6098,1.304913,-0.309643,1.295733
6100,1.304913,-0.309643,1.295733
6103,1.302812,-0.3090104,1.293768
6105,1.302211,-0.3090104,1.293466
6108,1.302211,-0.3090104,1.293466
6110,1.301309,-0.3090104,1.292558
6112,1.301309,-0.3090104,1.292558
6115,1.300105,-0.3077414,1.291649
6117,1.300105,-0.3077414,1.291649
6119,1.299052,-0.3077414,1.290588
6122,1.285423,-0.301316,1.276409
6124,1.285423,-0.301316,1.276409
6126,1.279625,-0.2993615,1.270416
6129,1.279625,-0.2993615,1.270416
6131,1.265168,-0.2954137,1.254762
6133,1.253201,-0.2940859,1.241593
6136,1.253201,-0.2940859,1.241593
6138,1.247724,-0.2940859,1.235272
6140,1.247724,-0.2940859,1.235272
6144,1.238595,-0.2940859,1.224772
6146,1.238595,-0.2940859,1.224772
6148,1.231147,-0.2947506,1.216275
6151,1.227964,-0.2960753,1.212246
6153,1.227964,-0.2960753,1.212246
6155,1.221733,-0.2973941,1.20496
6158,1.221733,-0.2973941,1.20496
6160,1.218846,-0.2980514,1.201545
6162,1.214987,-0.2907402,1.199915
6165,1.214987,-0.2907402,1.199915
6167,1.213053,-0.2873554,1.19861
6169,1.213053,-0.2873554,1.19861
6172,1.20966,-0.2790645,1.19763
6174,1.20966,-0.2790645,1.19763
6176,1.206583,-0.2741124,1.195995
6179,1.20496,-0.2719625,1.195013
6181,1.20496,-0.2719625,1.195013
6183,1.201871,-0.2690692,1.192554
6187,1.201871,-0.2690692,1.192554
6189,1.201382,-0.2676108,1.192226
6191,1.199426,-0.2661444,1.190583
6193,1.199426,-0.2661444,1.190583
6196,1.196649,-0.2661444,1.188115
6198,1.196649,-0.2661444,1.188115
6200,1.19534,-0.2661444,1.186797
6203,1.19534,-0.2661444,1.186797
6205,1.191405,0.2668786,1.182998
6207,1.189761,0.268341,1.181343
6210,1.189761,0.268341,1.181343
6212,1.186797,0.2676108,1.178192
6214,1.186797,0.2676108,1.178192
6217,1.18399,0.2668786,1.175365
6219,1.18399,0.2668786,1.175365
6221,1.182171,0.2661444,1.173365
6224,1.178856,0.2654082,1.169858
6226,1.178856,0.2654082,1.169858
6228,1.176696,0.2654082,1.167681
6232,1.176696,0.2654082,1.167681
6234,1.172865,0.2654082,1.163988
6236,1.170025,0.2654082,1.16079
6239,1.170025,0.2654082,1.16079
6241,1.165165,0.2661444,1.155722
6243,1.165165,0.2661444,1.155722
6246,1.162811,0.2668786,1.153349
6248,1.162811,0.2668786,1.153349
6250,1.158934,0.2697954,1.149269
6253,1.153349,0.2661444,1.142438
6255,1.153349,0.2661444,1.142438
6257,1.151141,0.2646699,1.139866
6260,1.151141,0.2646699,1.139866
6262,1.144492,0.2631872,1.131942
6264,1.141924,0.2624426,1.128826
6267,1.141924,0.2624426,1.128826
6269,1.135566,0.2586879,1.12187
6272,1.135566,0.2586879,1.12187
6275,1.129172,0.2548778,1.115398
6277,1.129172,0.2548778,1.115398
6279,1.123091,0.254109,1.109417
6281,1.114169,0.25101,1.100029
6284,1.114169,0.25101,1.100029
6286,1.110475,0.249446,1.096644
6288,1.110475,0.249446,1.096644
6291,1.099673,0.2486604,1.085705
6293,1.099673,0.2486604,1.085705
6295,1.091995,0.2502292,1.077745
6298,1.089483,0.2533378,1.07429
6300,1.089483,0.2533378,1.07429
6302,1.085164,0.2571706,1.068994
6305,1.085164,0.2571706,1.068994
6307,1.081913,0.2609472,1.06496
6309,1.045676,0.2306999,1.034954
6312,1.045676,0.2306999,1.034954
6315,0.997992,-0.2193969,0.9889315
6317,0.997992,-0.2193969,0.9889315
6320,0.9624583,-0.2517883,0.9448116
6322,0.9624583,-0.2517883,0.9448116
6324,0.949151,-0.2811602,0.9223848
6327,0.9331415,-0.3454843,0.8833739
6329,0.9331415,-0.3454843,0.8833739
6331,0.9293592,-0.3774237,0.8661495
6334,0.9293592,-0.3774237,0.8661495
6336,0.9245038,-0.3763854,0.8616194
6338,0.9228091,-0.354982,0.8697567
6341,0.9228091,-0.354982,0.8697567
6343,0.9257729,-0.3071049,0.8921905
6345,0.9257729,-0.3071049,0.8921905
6348,0.9356545,-0.2697954,0.9157847
6350,0.9356545,-0.2697954,0.9157847
6352,0.9402443,-0.2594432,0.9234449
6355,0.9542912,-0.2406627,0.9437756
6358,0.9542912,-0.2406627,0.9437756
6360,0.9695482,-0.2365626,0.9610341
6363,0.9695482,-0.2365626,0.9610341
6365,0.9779881,0.2390311,0.9689425
6367,0.9634743,-0.235734,0.955111
6369,0.9634743,-0.235734,0.955111
6372,0.9472937,-0.2365626,0.9379522
6374,0.9472937,-0.2365626,0.9379522
6376,0.9257729,-0.2517883,0.9115012
6379,0.9257729,-0.2517883,0.9115012
6381,0.9283059,-0.2478722,0.9155711
6383,0.9314623,-0.2446942,0.9206861
6386,0.9314623,-0.2446942,0.9206861
6388,0.9437756,-0.2406627,0.9350269
6390,0.9437756,-0.2406627,0.9350269
6393,0.948326,-0.2414744,0.939828
6395,0.948326,-0.2414744,0.939828
6397,0.9606267,0.2470816,0.9516218
6401,0.9717657,0.2548778,0.9612376
6403,0.9717657,0.2548778,0.9612376
6405,0.9769872,0.2594432,0.9657058
6408,0.9769872,0.2594432,0.9657058
6410,0.9845687,0.2668786,0.9717657
6412,0.989525,0.2719625,0.9755841
6415,0.989525,0.2719625,0.9755841
6417,0.991303,0.2741124,0.9769872
6419,0.991303,0.2741124,0.9769872
6422,0.9425307,-0.2446942,0.9339799
6424,0.9425307,-0.2446942,0.9339799
6426,0.9285166,-0.2446942,0.9189842
6429,0.9291486,-0.2430897,0.9198356
6431,0.9291486,-0.2430897,0.9198356
6433,0.9293592,-0.2422834,0.920261
6436,0.9293592,-0.2422834,0.920261
6438,0.9360726,-0.2414744,0.9274623
6440,0.9460534,0.2422834,0.9373261
6444,0.9460534,0.2422834,0.9373261
6446,0.9581792,0.2486604,0.9487386
6448,0.9581792,0.2486604,0.9487386
6450,0.9624583,0.25101,0.9524438
6453,0.9624583,0.25101,0.9524438
6455,0.971967,0.2586879,0.9606267
6457,0.977788,0.2646699,0.9655032
6460,0.977788,0.2646699,0.9655032
6462,0.9829774,0.2661444,0.9701535
6464,0.9829774,0.2661444,0.9701535
6467,0.990118,0.2697954,0.9765865
6469,0.990118,0.2697954,0.9765865
6471,0.9942597,0.2712421,0.9803861
6474,1.000147,0.2748253,0.985562
6476,1.000147,0.2748253,0.985562
6478,1.003662,0.276953,0.9887336
6481,1.003662,0.276953,0.9887336
6483,1.003662,0.276953,0.9887336
6486,0.9779881,0.2564087,0.9679322
6489,0.9779881,0.2564087,0.9679322
6491,0.9591998,-0.2502292,0.9505931
6493,0.9591998,-0.2502292,0.9505931
6496,0.9612376,-0.2564087,0.9524438
6498,0.9612376,-0.2564087,0.9524438
6500,0.9614412,-0.2586879,0.9530601
6503,0.98238,0.2668786,0.9731742
6505,0.98238,0.2668786,0.9731742
6507,0.9968149,0.2755364,0.9863558
6510,0.9968149,0.2755364,0.9863558
6512,0.9795874,0.2676108,0.9709598
6514,0.9571576,-0.2697954,0.9475003
6517,0.9571576,-0.2697954,0.9475003
6519,0.9439828,-0.2797648,0.9310421
6521,0.9439828,-0.2797648,0.9310421
6524,0.9285166,-0.3083766,0.9059024
6526,0.9285166,-0.3083766,0.9059024
6529,0.922597,-0.3256589,0.8937243
6532,0.9157847,-0.3577275,0.8740209
6534,0.9157847,-0.3577275,0.8740209
6536,0.9130027,-0.3856296,0.8595729
6538,0.9130027,-0.3856296,0.8595729
6541,0.912574,-0.3976209,0.8534044
6543,0.9134313,-0.4168407,0.8453411
6545,0.9134313,-0.4168407,0.8453411
6548,0.9140738,-0.4247459,0.8425589
6550,0.9151434,-0.4320539,0.8402332
6552,0.9151434,-0.4334104,0.8395343
6555,0.9151434,-0.4334104,0.8395343
6557,0.9151434,-0.4392403,0.8372003
6559,0.9153573,-0.4427898,0.8353283
6562,0.9153573,-0.4427898,0.8353283
6564,0.916639,-0.4454334,0.8357967
6566,0.916639,-0.4454334,0.8357967
6569,0.9170658,-0.4059006,0.858206
6572,0.9170658,-0.4059006,0.858206
6574,0.9206861,-0.3758652,0.8767033
6577,0.9375348,-0.3268584,0.9159984
6579,0.9375348,-0.3268584,0.9159984
6581,0.9503872,-0.3102743,0.9358636
6584,0.9503872,-0.3102743,0.9358636
6586,0.9642863,-0.3077414,0.9530601
6588,0.9663135,-0.315899,0.9547011
6591,0.9663135,-0.315899,0.9547011
6593,0.9675278,-0.3183671,0.9555206
6595,0.9675278,-0.3183671,0.9555206
6598,0.9575664,-0.3316129,0.9416999
6600,0.9575664,-0.3316129,0.9416999
6602,0.9528548,-0.3449174,0.9329317
6605,0.9518273,-0.3516591,0.930201
6607,0.9518273,-0.3516591,0.930201
6609,0.9507989,-0.3631561,0.9264069
6612,0.9507989,-0.3631561,0.9264069
6615,0.9507989,-0.3674413,0.9253501
6617,0.9507989,-0.3753442,0.9236568
6620,0.9507989,-0.3753442,0.9236568
6622,0.9614412,-0.3841043,0.9318824
6624,0.9614412,-0.3841043,0.9318824
6626,0.9827783,-0.4005627,0.9481196
6629,0.9827783,-0.4005627,0.9481196
6631,0.9932752,-0.4087828,0.9563395
6633,1.009882,-0.4219727,0.9689425
6636,1.009882,-0.4219727,0.9689425
6638,1.034387,-0.3700944,1.01914
6640,1.034387,-0.3700944,1.01914
6643,1.048665,-0.3620769,1.037975
6645,1.093248,0.3727285,1.082636
6647,1.093248,0.3727285,1.082636
6650,1.139351,0.4130683,1.117151
6652,1.139351,0.4130683,1.117151
6654,1.161801,0.4370072,1.131769
6658,1.161801,0.4370072,1.131769
6660,1.201871,0.4813265,1.156399
6662,1.219649,0.5008504,1.167011
6665,1.219649,0.5008504,1.167011
6667,1.251326,0.5359538,1.184982
6669,1.251326,0.5359538,1.184982
6672,1.262226,0.5482264,1.189925
6674,1.262226,0.5482264,1.189925
6676,1.284052,0.5733491,1.200241
6679,1.295129,0.5851721,1.203985
6681,1.295129,0.5851721,1.203985
6683,1.301309,0.5921526,1.206745
6686,1.301309,0.5921526,1.206745
6688,1.301911,0.5875081,1.207069
6690,1.307759,0.590498,1.210469
6693,1.307759,0.590498,1.210469
6695,1.308208,0.5901666,1.209984
6697,1.308208,0.5901666,1.209984
6701,1.312986,0.5941319,1.211762
6703,1.312986,0.5941319,1.211762
6705,1.311942,0.5928131,1.210469
6708,1.314327,0.5947903,1.210792
6710,1.314327,0.5947903,1.210792
6712,1.312837,0.5931431,1.209337
6714,1.312837,0.5931431,1.209337
6717,1.314029,0.5954478,1.209013
6719,1.290588,0.5654452,1.19534
6721,1.290588,0.5654452,1.19534
6724,1.283289,0.5556712,1.19124
6726,1.283289,0.5556712,1.19124
6728,1.257255,0.5196414,1.176862
6731,1.257255,0.5196414,1.176862
6733,1.242381,0.4981082,1.168686
6735,1.229874,0.4825446,1.16079
6738,1.229874,0.4825446,1.16079
6740,1.212892,0.4601268,1.14995
6743,1.212892,0.4601268,1.14995
6746,1.202033,0.4458725,1.142781
6748,1.202033,0.4458725,1.142781
6750,1.187127,0.4265846,1.132633
6753,1.178026,0.4173099,1.125875
6755,1.178026,0.4173099,1.125875
6757,1.165501,0.4049353,1.116275
6760,1.165501,0.4049353,1.116275
6762,1.154875,0.3961419,1.108005
6764,1.14995,0.3921704,1.104113
6767,1.14995,0.3921704,1.104113
6769,1.148247,0.3941611,1.101806
6771,1.148247,0.3941611,1.101806
6774,1.151821,0.4020255,1.103404
6776,1.151821,0.4020255,1.103404
6778,1.146542,0.3981127,1.099139
6781,1.138836,0.393167,1.093069
6784,1.138836,0.393167,1.093069
6786,1.131077,0.3876539,1.086605
6789,1.131077,0.3876539,1.086605
6791,1.128826,0.3856296,1.084623
6793,1.12187,0.3794918,1.079378
6796,1.12187,0.3794918,1.079378
6798,1.118026,0.3769049,1.076473
6800,1.118026,0.3769049,1.076473
6802,1.07611,0.3280534,1.048292
6805,1.07611,0.3280534,1.048292
6807,1.04605,0.2954137,1.026982
6809,1.021058,0.272681,1.007554
6812,1.021058,0.272681,1.007554
6814,1.017411,0.2705197,1.004442
6816,1.017411,0.2705197,1.004442
6819,1.015678,0.2690692,1.003077
6821,1.023547,0.2783625,1.009106
6823,1.023547,0.2783625,1.009106
6827,1.030596,0.2887141,1.014329
6829,1.030596,0.2887141,1.014329
6831,1.034008,0.2940859,1.016833
6834,1.034008,0.2940859,1.016833
6836,1.047545,0.3121605,1.027363
6838,1.056659,0.324455,1.034387
6841,1.056659,0.324455,1.034387
6843,1.070092,0.3414966,1.044552
6845,1.070092,0.3414966,1.044552
6848,1.072832,0.3460502,1.046424
6850,1.072832,0.3460502,1.046424
6852,1.046611,0.3195939,1.028315
6855,1.008912,0.2907402,0.9989719
6857,1.008912,0.2907402,0.9989719
6859,0.9962258,0.2853053,0.9873473
6862,0.9962258,0.2853053,0.9873473
6864,1.001906,0.2907402,0.992881
6866,1.003467,0.2927522,0.9944565
6870,1.003467,0.2927522,0.9944565
6872,1.017603,0.3032579,1.007165
6874,1.017603,0.3032579,1.007165
6877,1.022782,0.3077414,1.011624
6879,1.022782,0.3077414,1.011624
6881,1.035332,0.3189811,1.022399
6884,1.03967,0.3232465,1.026029
6886,1.03967,0.3232465,1.026029
6888,1.048665,0.3316129,1.033251
6890,1.048665,0.3316129,1.033251
6893,1.051833,0.3345502,1.035521
6895,1.059618,0.3403488,1.041738
6897,1.059618,0.3403488,1.041738
6900,1.0622,0.3420692,1.04399
6902,1.0622,0.3420692,1.04399
6904,1.071006,0.3471792,1.051088
6907,1.071006,0.3471792,1.051088
6909,1.077745,0.3511023,1.056103
6912,1.080646,0.3538778,1.057954
6915,1.080646,0.3538778,1.057954
6917,1.084623,0.358274,1.060725
6919,1.084623,0.358274,1.060725
6922,1.085705,0.358274,1.061278
6924,1.086785,0.3593647,1.0622
6926,1.086785,0.3593647,1.0622
6929,1.086605,0.3588198,1.0622
6931,1.086605,0.3588198,1.0622
6933,1.086065,0.358274,1.062016
6936,1.086065,0.358274,1.062016
6938,1.085524,0.3566318,1.061647
6940,1.084442,0.3538778,1.061463
6943,1.084442,0.3538778,1.061463
6945,1.083178,0.3511023,1.06091
6947,1.083178,0.3511023,1.06091
6950,1.08137,0.3471792,1.059987
6952,1.08137,0.3471792,1.059987
6955,1.080465,0.3443497,1.059802
6958,1.079015,0.3403488,1.059063
6960,1.079015,0.3403488,1.059063
6962,1.077563,0.3357179,1.058879
6965,1.077563,0.3357179,1.058879
6967,1.0772,0.3339648,1.058694
6969,1.075928,0.3286494,1.057584
6972,1.075928,0.3286494,1.057584
6974,1.075382,0.3268584,1.057029
6976,1.075382,0.3268584,1.057029
6978,1.073561,0.3232465,1.055176
6981,1.073561,0.3232465,1.055176
6983,1.072284,0.3214254,1.053877
6985,1.069726,0.3177519,1.051461
6988,1.069726,0.3177519,1.051461
6990,1.068811,0.315899,1.05053
6992,1.068811,0.315899,1.05053
6995,1.036465,0.2832403,1.025266
6998,0.9960293,-0.2654082,0.9869508
7000,0.9960293,-0.2654082,0.9869508
7003,0.9681343,-0.289391,0.9493572
7005,0.9681343,-0.289391,0.9493572
7007,0.9583834,-0.315279,0.9297802
7010,0.9583834,-0.315279,0.9297802
7012,0.9528548,-0.3432113,0.913217
7014,0.9522384,-0.414487,0.8816
7017,0.9522384,-0.414487,0.8816
7019,0.9544962,-0.4467493,0.8681804
7021,0.9544962,-0.4467493,0.8681804
7024,0.9626616,-0.5031891,0.845804
7026,0.9626616,-0.5031891,0.845804
7028,0.964895,-0.5222706,0.8372003
7031,0.9713628,-0.5567266,0.8221055
7033,0.9713628,-0.5567266,0.8221055
7035,0.9725708,-0.5654452,0.8182884
7038,0.9725708,-0.5654452,0.8182884
7041,0.9761857,-0.5831623,0.8103587
7043,0.9761857,-0.5855064,0.8086666
7046,0.9761857,-0.5855064,0.8086666
7048,0.9779881,-0.5951191,0.804056
7050,0.9779881,-0.5951191,0.804056
7053,0.9779881,-0.5957764,0.8038125
7055,0.9779881,-0.5957764,0.8038125
7057,0.9797872,-0.6010084,0.8013745
7059,0.9767869,-0.5983981,0.8003972
7062,0.9767869,-0.5983981,0.8003972
7064,0.9735762,-0.598725,0.7969672
7066,0.9735762,-0.598725,0.7969672
7069,0.972772,-0.5993783,0.7959845
7071,0.9729732,-0.5997046,0.7959845
7073,0.9729732,-0.5997046,0.7959845
7076,0.9735762,-0.5997046,0.7967216
7078,0.9735762,-0.5997046,0.7967216
7080,0.9739782,-0.5993783,0.7974581
7084,0.9739782,-0.5993783,0.7974581
7086,0.9761857,-0.6036074,0.7974581
7088,0.9721684,-0.5993783,0.796476
7091,0.9721684,-0.5993783,0.796476
7093,0.9713628,-0.5990517,0.7954926
7095,0.9713628,-0.5990517,0.7954926
7098,0.9667184,-0.5947903,0.7937689
7100,0.9655032,-0.5947903,0.7927822
7102,0.9655032,-0.5947903,0.7927822
7105,0.9618481,-0.5924829,0.7905577
7107,0.9618481,-0.5924829,0.7905577
7109,0.9591998,-0.5911604,0.7888232
7112,0.9591998,-0.5911604,0.7888232
7114,0.9577706,-0.5901666,0.7883269
7116,0.9569532,-0.5914913,0.7865875
7119,0.9569532,-0.5914913,0.7865875
7121,0.9583834,-0.5938025,0.7870849
7123,0.9583834,-0.5938025,0.7870849
7127,0.9591998,-0.5957764,0.7865875
7129,0.9591998,-0.5957764,0.7865875
7131,0.9583834,-0.5934729,0.7873334
7134,0.9583834,-0.5938025,0.7868362
7136,0.9583834,-0.5938025,0.7868362
7138,0.957975,-0.5914913,0.7885751
7141,0.957975,-0.5914913,0.7885751
7143,0.9581792,-0.5914913,0.7888232
7145,0.9581792,-0.5911604,0.7890712
7147,0.9581792,-0.5911604,0.7890712
7150,0.957975,-0.5911604,0.7893192
7152,0.957975,-0.5911604,0.7893192
7154,0.9567486,-0.5881739,0.7893192
7157,0.9567486,-0.5881739,0.7893192
7159,0.955111,-0.5851721,0.7885751
7161,0.9526493,-0.5787839,0.7888232
7164,0.9526493,-0.5787839,0.7888232
7166,0.9518273,-0.577091,0.7888232
7169,0.9518273,-0.577091,0.7888232
7172,0.9499753,-0.5726661,0.7893192
7174,0.9493572,-0.5716401,0.7890712
7176,0.9493572,-0.5716401,0.7890712
7179,0.9487386,-0.5699261,0.7888232
7181,0.9487386,-0.5699261,0.7888232
7183,0.9485323,-0.569239,0.7883269
7186,0.9485323,-0.569239,0.7883269
7188,0.9479132,-0.5668277,0.7898148
7190,0.9472937,-0.5640592,0.7905577
7193,0.9472937,-0.5640592,0.7905577
7195,0.9472937,-0.5609285,0.7922885
7197,0.9472937,-0.5609285,0.7922885
7200,0.9475003,-0.55778,0.7945082
7202,0.9475003,-0.55778,0.7945082
7204,0.9501812,-0.5584812,0.796476
7207,0.9514161,-0.5595313,0.7972127
7209,0.9514161,-0.5595313,0.7972127
7212,0.9526493,-0.5588315,0.7991739
7215,0.9526493,-0.5588315,0.7991739
7217,0.9534706,-0.5591815,0.7996635
7219,0.9549061,-0.5598809,0.800886
7222,0.9549061,-0.5598809,0.800886
7224,0.9571576,-0.5612772,0.8023506
7226,0.9571576,-0.5612772,0.8023506
7229,0.9594038,-0.563365,0.8033255
7231,0.9594038,-0.563365,0.8033255
7233,0.9626616,-0.5668277,0.8042993
7235,0.9634743,-0.5682068,0.8047857
7238,0.9634743,-0.5682068,0.8047857
7240,0.9653005,-0.5702693,0.8050289
7242,0.9653005,-0.5702693,0.8050289
7245,0.9659084,-0.5712977,0.8047857
7247,0.9495632,-0.4588492,0.8568369
7249,0.9495632,-0.4588492,0.8568369
7252,0.9524438,-0.3674413,0.9039564
7255,0.9524438,-0.3674413,0.9039564
7257,0.9600154,-0.3286494,0.9270402
7260,0.9600154,-0.3286494,0.9270402
7262,0.9825793,-0.2776587,0.9671232
7264,1.009106,-0.2579304,0.9999508
7267,1.009106,-0.2579304,0.9999508
7269,1.021058,-0.2564087,1.012591
7271,1.021058,-0.2564087,1.012591
7274,1.043615,0.2646699,1.033819
7276,1.051274,0.2690692,1.040423
7278,1.051274,0.2690692,1.040423
7281,1.065511,0.2797648,1.052205
7283,1.065511,0.2797648,1.052205
7285,1.072832,0.2859903,1.057954
7288,1.072832,0.2859903,1.057954
7290,1.023738,0.2579304,1.015293
7292,1.009882,-0.2586879,1.001124
7296,1.009882,-0.2586879,1.001124
7298,1.01085,-0.2579304,1.002101
7300,1.01085,-0.2579304,1.002101
7303,1.018372,0.2609472,1.009882
7305,1.018372,0.2609472,1.009882
7307,1.030026,0.268341,1.020483
7310,1.035521,0.272681,1.025266
7312,1.035521,0.272681,1.025266
7314,1.046985,0.2846186,1.034576
7317,1.046985,0.2846186,1.034576
7319,1.052391,0.2900664,1.038728
7321,1.006388,-0.2668786,0.9977959
7323,1.006388,-0.2668786,0.9977959
7326,0.9920924,-0.2676108,0.9829774
7328,0.9920924,-0.2676108,0.9829774
7330,0.9612376,-0.3051875,0.9402443
7333,0.9612376,-0.3051875,0.9402443
7335,0.9475003,-0.3593647,0.906766
7337,0.9448116,-0.3891652,0.8917516
7341,0.9448116,-0.3891652,0.8917516
7343,0.9437756,-0.4383485,0.867504
7345,0.9437756,-0.4383485,0.867504
7348,0.9454328,-0.4768338,0.8494976
7350,0.9468806,-0.4921804,0.8425589
7352,0.9468806,-0.4921804,0.8425589
7355,0.9485323,-0.5135812,0.8313365
7357,0.9485323,-0.5135812,0.8313365
7359,0.9493572,-0.5226451,0.8268523
7362,0.9493572,-0.5226451,0.8268523
7364,0.9489449,-0.5319225,0.8201992
7366,0.9493572,-0.5370479,0.8175707
7369,0.9493572,-0.5370479,0.8175707
7371,0.9487386,-0.5414024,0.8139727
7373,0.9487386,-0.5414024,0.8139727
7376,0.9481196,-0.5439265,0.811324
7378,0.9481196,-0.5439265,0.811324
7380,0.9475003,-0.5450047,0.8103587
7384,0.9477068,-0.5485832,0.8079404
7386,0.9477068,-0.5485832,0.8079404
7388,0.9472937,-0.5489398,0.8072135
7391,0.9472937,-0.5496522,0.8064859
7393,0.9472937,-0.5510744,0.8055148
7395,0.9472937,-0.5510744,0.8055148
7398,0.9472937,-0.5510744,0.8055148
7400,0.9472937,-0.5510744,0.8055148
7402,0.9472937,-0.5510744,0.8055148
7405,0.948326,-0.5517841,0.8064859
7407,0.948326,-0.5517841,0.8064859
7409,0.9503872,-0.5556712,0.806971
7411,0.9520329,-0.5560232,0.8084246
7414,0.9520329,-0.5560232,0.8084246
7416,0.955111,-0.5581307,0.8101172
7418,0.955111,-0.5581307,0.8101172
7421,0.9565441,-0.5570779,0.8127698
7424,0.9589957,-0.5567266,0.8161334
7426,0.9589957,-0.5567266,0.8161334
7429,0.9565441,-0.5500081,0.8161334
7431,0.9565441,-0.5500081,0.8161334
7433,0.9557254,-0.5489398,0.8158936
7436,0.9557254,-0.5489398,0.8158936
7438,0.9458466,-0.4885893,0.8423266
7440,0.9429458,-0.4059006,0.8822656
7443,0.9429458,-0.4059006,0.8822656
7445,0.9429458,-0.4039677,0.8831524
7447,0.9429458,-0.4039677,0.8831524
7450,0.9435682,-0.4005627,0.8853652
7452,0.9431533,-0.4187142,0.8758101
7454,0.9431533,-0.4187142,0.8758101
7457,0.9431533,-0.4261257,0.872228
7459,0.9431533,-0.4261257,0.872228
7461,0.9437756,-0.4467493,0.8623004
7464,0.9437756,-0.4467493,0.8623004
7467,0.9443973,-0.4541341,0.8586619
7469,0.9431533,-0.4173099,0.8762568
7472,0.9431533,-0.4173099,0.8762568
7474,0.9479132,-0.3588198,0.9076288
7476,0.9479132,-0.3588198,0.9076288
7479,0.9565441,-0.3238513,0.930201
7481,0.9565441,-0.3238513,0.930201
7483,0.9775878,-0.2866737,0.9644893
7486,0.9717657,-0.3000144,0.9505931
7488,0.96773,-0.3000144,0.9505931
7490,0.964895,-0.3051875,0.9456397
7493,0.964895,-0.3051875,0.9456397
7495,0.9561348,-0.3256589,0.9297802
7497,0.9520329,-0.3403488,0.9198356
7499,0.9520329,-0.3403488,0.9198356
7502,0.9547011,-0.3333784,0.9268292
7504,0.9547011,-0.3333784,0.9268292
7506,0.9671232,-0.3109043,0.9497693
7510,0.9671232,-0.3109043,0.9497693
7512,0.978988,-0.2967354,0.9667184
7514,1.001711,-0.2887141,0.9930781
7517,1.001711,-0.2887141,0.9930781
7519,0.9997552,-0.2914124,0.9907107
7521,0.9997552,-0.2914124,0.9907107
7524,0.9915005,-0.2960753,0.9809847
7526,0.9755841,-0.3177519,0.9581792
7528,0.9755841,-0.3177519,0.9581792
7531,0.9689425,-0.3351346,0.9456397
7533,0.9689425,-0.3351346,0.9456397
7535,0.9608305,-0.3727285,0.9228091
7538,0.9608305,-0.3727285,0.9228091
7540,0.9589957,-0.393167,0.9127884
7542,0.9616448,-0.3896677,0.9177057
7545,0.9616448,-0.3896677,0.9177057
7547,0.9693463,-0.3620769,0.9385778
7549,0.9693463,-0.3620769,0.9385778
7553,0.9779881,-0.3432113,0.9553158
7555,0.9946532,-0.3226406,0.9805858
7557,0.9946532,-0.3226406,0.9805858
7560,1.012398,-0.3140353,1.002687
7562,1.012398,-0.3140353,1.002687
7564,1.022207,-0.3127867,1.013363
7567,1.022207,-0.3127867,1.013363
7569,1.018756,-0.3134116,1.009688
7571,1.009882,-0.3165179,0.9993636
7574,1.009882,-0.3165179,0.9993636
7576,1.007554,-0.3183671,0.9966185
7578,1.007554,-0.3183671,0.9966185
7581,1.0151,-0.3165179,1.005415
7583,1.0151,-0.3165179,1.005415
7585,1.01818,-0.315899,1.008912
7587,1.032114,-0.3165179,1.023547
7590,1.032114,-0.3165179,1.023547
7592,1.037975,0.3183671,1.029456
7595,1.037975,0.3183671,1.029456
7598,1.014329,-0.3195939,1.004442
7600,1.010075,-0.3220336,0.9995593
7602,1.010075,-0.3220336,0.9995593
7605,1.01317,-0.3208161,1.003077
7607,1.01317,-0.3208161,1.003077
7609,1.018372,-0.3202056,1.009106
7612,1.018372,-0.3202056,1.009106
7614,1.032114,-0.3202056,1.023738
7616,1.037975,0.3214254,1.029456
7619,1.037975,0.3214254,1.029456
7621,1.015678,-0.3226406,1.005415
7623,1.015678,-0.3226406,1.005415
7626,1.008525,-0.3262592,0.9968149
7628,0.9899204,-0.3483046,0.9693463
7630,0.9899204,-0.3483046,0.9693463
7633,0.9891293,-0.3483046,0.9681343
7635,0.9891293,-0.3483046,0.9681343
7638,0.993472,-0.3409232,0.9757847
7641,0.993472,-0.3409232,0.9757847
7643,1.000733,-0.3310224,0.987149
7645,0.9924868,-0.3345502,0.9759852
7648,0.9924868,-0.3345502,0.9759852
7650,0.9809847,-0.3432113,0.9596078
7652,0.9809847,-0.3432113,0.9596078
7655,0.9903157,-0.3220336,0.9761857
7657,0.9903157,-0.3220336,0.9761857
7659,0.9946532,-0.315279,0.98238
7662,1.011044,-0.3045456,1.002101
7664,1.011044,-0.3045456,1.002101
7666,1.024502,0.3039024,1.015871
7668,1.024502,0.3039024,1.015871
7671,1.01085,-0.3032579,1.001906
7673,0.9930781,-0.311533,0.9813836
7675,0.9930781,-0.311533,0.9813836
7678,0.9995593,-0.309643,0.9891293
7681,0.9995593,-0.309643,0.9891293
7683,1.009882,-0.3090104,1.000733
7686,1.009882,-0.3090104,1.000733
7688,0.9981881,-0.315899,0.9869508
7690,0.9831765,-0.332791,0.9667184
7693,0.9831765,-0.332791,0.9667184
7695,0.9733753,-0.3488659,0.9505931
7697,0.9733753,-0.3488659,0.9505931
7700,0.9614412,-0.3805216,0.9261956
7702,0.9530601,-0.4149588,0.9022229
7704,0.9530601,-0.4149588,0.9022229
7707,0.9510047,-0.4297835,0.8930672
7709,0.9510047,-0.4297835,0.8930672
7711,0.9499753,-0.409739,0.9022229
7714,0.9499753,-0.409739,0.9022229
7716,0.9528548,-0.3856296,0.9159984
7718,0.9534706,-0.3732531,0.9223848
7721,0.9534706,-0.3732531,0.9223848
7724,0.9487386,-0.3810355,0.9142877
7726,0.9487386,-0.3810355,0.9142877
7729,0.9450188,-0.392669,0.9048218
7731,0.939828,-0.4125943,0.8906538
7733,0.939828,-0.4125943,0.8906538
7736,0.9439828,-0.3851218,0.9076288
7738,0.9439828,-0.3851218,0.9076288
7740,0.9542912,-0.3516591,0.932722
7743,0.9542912,-0.3516591,0.932722
7745,0.953881,-0.3499859,0.9331415
7747,0.9499753,-0.3577275,0.9259842
7750,0.9499753,-0.364769,0.9198356
7752,0.9416999,-0.3805216,0.9078444
7754,0.9416999,-0.3805216,0.9078444
7756,0.9362817,-0.4083038,0.8895546
7759,0.9362817,-0.4083038,0.8895546
7761,0.9341894,-0.4261257,0.8791551
7763,0.9325122,-0.4558544,0.8627541
7767,0.9325122,-0.4558544,0.8627541
7769,0.9325122,-0.4702222,0.8543211
7771,0.9325122,-0.4702222,0.8543211
7774,0.9337703,-0.4949555,0.8411642
7776,0.9343988,-0.5039662,0.8362648
7778,0.9343988,-0.5039662,0.8362648
7781,0.9356545,-0.5196414,0.8273254
7783,0.9356545,-0.5196414,0.8273254
7785,0.9358636,-0.5245137,0.8242449
7788,0.9358636,-0.5245137,0.8242449
7790,0.9360726,-0.533392,0.8187665
7792,0.9366996,-0.5381398,0.8158936
7795,0.9366996,-0.5381398,0.8158936
7797,0.9377435,-0.5446455,0.8130105
7799,0.9377435,-0.5446455,0.8130105
7802,0.9389946,-0.5482264,0.8118062
7804,0.9396197,-0.5496522,0.8118062
7806,0.9396197,-0.5496522,0.8118062
7810,0.9402443,-0.5517841,0.811324
7812,0.9402443,-0.5517841,0.811324
7814,0.9408684,-0.5521386,0.811324
7817,0.9408684,-0.5521386,0.811324
7819,0.9404523,-0.5521386,0.811324
7821,0.9400361,-0.5514293,0.8110828
7824,0.9400361,-0.5514293,0.8110828
7826,0.939828,-0.5517841,0.8106001
7828,0.939828,-0.5517841,0.8106001
7831,0.9375348,-0.5496522,0.8093922
7833,0.9369085,-0.5500081,0.8086666
7835,0.9369085,-0.5500081,0.8086666
7838,0.9400361,-0.5489398,0.8120472
7840,0.9400361,-0.5489398,0.8120472
7842,0.9408684,-0.5485832,0.8127698
7844,0.9408684,-0.5485832,0.8127698
7847,0.9406604,-0.5482264,0.8127698
7849,0.9396197,-0.5485832,0.811324
7852,0.9396197,-0.5485832,0.811324
7855,0.9389946,-0.5489398,0.8106001
7857,0.9389946,-0.5489398,0.8106001
7859,0.9385778,-0.5507192,0.8086666
7862,0.9385778,-0.5507192,0.8086666
7864,0.9375348,-0.5507192,0.8076981
7866,0.9371173,-0.5517841,0.8072135
7869,0.9371173,-0.5517841,0.8072135
7871,0.9408684,-0.5528469,0.8098756
7873,0.9408684,-0.5528469,0.8098756
7876,0.9423231,-0.5532007,0.8106001
7878,0.9414921,-0.5517841,0.8103587
7880,0.9414921,-0.5517841,0.8103587
7883,0.9406604,-0.5517841,0.8098756
7885,0.9406604,-0.5517841,0.8098756
7887,0.9385778,-0.5500081,0.8089085
7890,0.9385778,-0.5500081,0.8089085
7892,0.9371173,-0.5489398,0.8079404
7895,0.9389946,-0.5485832,0.8098756
7898,0.9389946,-0.5485832,0.8098756
7900,0.9421154,-0.5496522,0.8120472
7902,0.9421154,-0.5496522,0.8120472
7905,0.9462603,-0.5492961,0.8154138
7907,0.9477068,-0.5496522,0.8166127
7909,0.9477068,-0.5496522,0.8166127
7912,0.9472937,-0.5492961,0.8166127
7914,0.9472937,-0.5492961,0.8166127
7916,0.9448116,-0.5482264,0.8149337
7919,0.9448116,-0.5482264,0.8149337
7921,0.9431533,-0.5485832,0.8134917
7923,0.9404523,-0.5500081,0.8103587
7926,0.9404523,-0.5500081,0.8103587
7928,0.9410763,-0.5489398,0.8118062
7930,0.9410763,-0.5489398,0.8118062
7932,0.9423231,-0.5482264,0.8130105
7936,0.9423231,-0.5482264,0.8130105
7938,0.9423231,-0.5435666,0.8154138
7940,0.9423231,-0.5421248,0.8161334
7943,0.9423231,-0.5421248,0.8161334
7945,0.9421154,-0.5385033,0.81781
7947,0.9421154,-0.5385033,0.81781
7950,0.9419076,-0.5370479,0.8180492
7952,0.9505931,-0.5432066,0.8242449
7954,0.9505931,-0.5432066,0.8242449
7957,0.9646922,-0.5546138,0.8332174
7959,0.9646922,-0.5546138,0.8332174
7961,0.9729732,-0.5616257,0.8383681
7964,0.9729732,-0.5616257,0.8383681
7966,0.9853634,-0.5726661,0.845804
7968,0.9759852,-0.5218958,0.8702065
7971,0.9759852,-0.5218958,0.8702065
7973,0.9715644,-0.4524074,0.906766
7975,0.9715644,-0.4524074,0.906766
7979,0.9715644,-0.4140146,0.9278842
7981,0.9815831,-0.3695653,0.9602193
7983,0.9815831,-0.3695653,0.9602193
7986,0.9968149,-0.3533245,0.9853634
7988,0.9968149,-0.3533245,0.9853634
7990,1.00561,-0.3522151,0.9962258
7993,1.00561,-0.3522151,0.9962258
7995,1.017987,0.3544303,1.0093
7997,1.026792,0.360452,1.016448
8000,1.026792,0.360452,1.016448
8002,1.006777,0.3522151,0.9983841
8004,1.006777,0.3522151,0.9983841
8007,0.9841712,-0.3560827,0.972772
8009,0.9859589,-0.3566318,0.9747815
8011,0.9859589,-0.3566318,0.9747815
8014,0.989525,-0.3588198,0.9793876
8016,0.989525,-0.3588198,0.9793876
8018,0.9783881,-0.3679734,0.9640834
8020,0.9783881,-0.3679734,0.9640834
8024,0.9675278,-0.393167,0.9423231
8026,0.9687405,-0.3871488,0.9468806
8028,0.9687405,-0.3871488,0.9468806
8031,0.9717657,-0.3805216,0.9544962
8033,0.9717657,-0.3805216,0.9544962
8035,0.9733753,-0.3784592,0.957975
8038,0.9733753,-0.3784592,0.957975
8040,0.9837734,-0.3716771,0.9731742
8042,0.9887336,-0.3706227,0.9793876
8045,0.9887336,-0.3706227,0.9793876
8047,0.9993636,-0.373777,0.9909081
8049,0.9993636,-0.373777,0.9909081
8052,0.9879416,-0.3753442,0.9787881
8054,0.9763861,-0.3805216,0.9646922
8056,0.9763861,-0.3805216,0.9646922
8059,0.9575664,-0.4054182,0.9337703
8061,0.9575664,-0.4054182,0.9337703
8064,0.9512104,-0.4247459,0.917919
8067,0.9512104,-0.4247459,0.917919
8069,0.9460534,-0.4609765,0.8935054
8071,0.9456397,-0.4343124,0.9089215
8074,0.9456397,-0.4343124,0.9089215
8076,0.9462603,-0.4265846,0.9145018
8078,0.9462603,-0.4265846,0.9145018
8081,0.9544962,-0.4025119,0.9369085
8083,0.9526493,-0.4068635,0.9339799
8085,0.9526493,-0.4068635,0.9339799
8088,0.9481196,-0.4173099,0.9249271
8090,0.9481196,-0.4173099,0.9249271
8092,0.9431533,-0.4356619,0.910857
8095,0.9431533,-0.4356619,0.910857
8097,0.9412843,-0.4584226,0.8970026
