time,turnedAngle,pitchAngle,yawAngle
  367,0,0,0
5645063,0,0,0
5645066,0,0,0
5645068,0,0,0
5645071,0,0,0
5?????b???3,0,0,0
5645066,0,0,0
5645068,0,0,0
5645071,0,0,0
5?????b???b???b???b???bj
5645076,0,0,0
5645078,0,0,0
5645081,0,0,0
5645084,0,0,0
5645086,0,0,0
5645089,0,0,0
5645091,0,0,0
5645094,0,0,0
5645096,0,0,0
5645100,0,0,0
5645103,0,0,0
5645105,0,0,0
5645108,0,0,0
5645110,0,0,0
5645113,0,0,0
5645115,0,0,0
5645118,0,0,0
5645121,0,0,0
5645123,0,0,0
5645126,0,0,0
5645128,0,0,0
5645131,0,0,0
5645133,0,0,0
5645136,0,0,0
5645139,0,0,0
5645142,0,0,0
5645145,0,0,0
5645147,0,0,0
5645150,0,0,0
5645152,0,0,0
5645155,0,0,0
5645158,0,0,0
5645160,0,0,0
5645163,0,0,0
5645165,0,0,0
5645168,0,0,0
5645170,0,0,0
5645173,0,0,0
5645176,0,0,0
5645178,0,0,0
5645181,0,0,0
5645184,0,0,0
5645187,0,0,0
5645189,0,0,0
5645192,0,0,0
5645195,0,0,0
5645197,0,0,0
5645200,0,0,0
5645202,0,0,0
5645205,0,0,0
5645207,0,0,0
5645210,0,0,0
5645213,0,0,0
5645215,0,0,0
5645218,0,0,0
5645220,0,0,0
5645223,0,0,0
5645227,0,0,0
5645229,0,0,0
5645232,0,0,0
5645234,0,0,0
5645237,0,0,0
5645239,0,0,0
5645242,0,0,0
5645245,0,0,0
5645247,0,0,0
5645250,0,0,0
5645252,0,0,0
5645255,0,0,0
5645257,0,0,0
5645260,0,0,0
5645263,0,0,0
5645265,0,0,0
5645268,0,0,0
5645271,0,0,0
5645274,0,0,0
5645276,0,0,0
5645279,0,0,0
5645282,0,0,0
5645284,0,0,0
5645287,0,0,0
5645289,0,0,0
5645292,0,0,0
5645294,0,0,0
5645297,0,0,0
5645300,0,0,0
5645302,0,0,0
5645305,0,0,0
5645307,0,0,0
5645310,0,0,0
5645313,0,0,0
5645316,0,0,0
5645319,0,0,0
5645321,0,0,0
5645324,0,0,0
5645326,0,0,0
5645329,0,0,0
5645331,0,0,0
5645334,0,0,0
5645337,0,0,0
5645339,0,0,0
5645342,0,0,0
5645344,0,0,0
5645347,0,0,0
5645349,0,0,0
5645352,0,0,0
5645356,0,0,0
5645358,0,0,0
5645361,0,0,0
5645363,0,0,0
5645366,0,0,0
5645368,0,0,0
5645371,0,0,0
5645374,0,0,0
5645376,0,0,0
5645379,0,0,0
5645381,0,0,0
5645384,0,0,0
5645386,0,0,0
5645389,0,0,0
5645392,0,0,0
5645394,0,0,0
5645398,0,0,0
5645400,0,0,0
5645403,0,0,0
5645405,0,0,0
5645408,0,0,0
5645411,0,0,0
5645413,0,0,0
5645416,0,0,0
5645418,0,0,0
5645421,0,0,0
5645423,0,0,0
5645426,0,0,0
5645429,0,0,0
5645431,0,0,0
5645434,0,0,0
5645436,0,0,0
5645440,0,0,0
5645443,0,0,0
5645445,0,0,0
5645448,0,0,0
5645450,0,0,0
5645453,0,0,0
5645455,0,0,0
5645458,0,0,0
5645461,0,0,0
5645463,0,0,0
5645466,0,0,0
5645468,0,0,0
5645471,0,0,0
5645473,0,0,0
5645476,0,0,0
5645479,0,0,0
5645481,0,0,0
5645485,0,0,0
5645487,0,0,0
5645490,0,0,0
5645492,0,0,0
5645495,0,0,0
5645498,0,0,0
5645500,0,0,0
5645503,0,0,0
5645505,0,0,0
5645508,0,0,0
5645510,0,0,0
5645513,0,0,0
5645516,0,0,0
5645518,0,0,0
5645521,0,0,0
5645523,0,0,0
5645527,0,0,0
5645529,0,0,0
5645532,0,0,0
5645535,0,0,0
5645537,0,0,0
5645540,0,0,0
5645542,0,0,0
5645545,0,0,0
5645547,0,0,0
5645550,0,0,0
5645553,0,0,0
5645555,0,0,0
5645558,0,0,0
5645560,0,0,0
5645563,0,0,0
5645565,0,0,0
5645569,0,0,0
5645572,0,0,0
5645574,0,0,0
5645577,0,0,0
5645579,0,0,0
5645582,0,0,0
5645584,0,0,0
5645587,0,0,0
5645590,0,0,0
5645592,0,0,0
5645595,0,0,0
5645597,0,0,0
5645600,0,0,0
5645602,0,0,0
5645605,0,0,0
5645608,0,0,0
5645611,0,0,0
5645614,0,0,0
5645616,0,0,0
5645619,0,0,0
5645621,0,0,0
5645624,0,0,0
5645627,0,0,0
5645629,0,0,0
5645632,0,0,0
5645634,0,0,0
5645637,0,0,0
5645640,0,0,0
5645642,0,0,0
5645645,0,0,0
5645647,0,0,0
5645650,0,0,0
5645652,0,0,0
5645656,0,0,0
5645659,0,0,0
5645661,0,0,0
5645664,0,0,0
5645666,0,0,0
5645669,0,0,0
5645671,0,0,0
5645674,0,0,0
5645677,0,0,0
5645679,0,0,0
5645682,0,0,0
5645684,0,0,0
5645687,0,0,0
5645689,0,0,0
5645692,0,0,0
5645696,0,0,0
5645698,0,0,0
5645701,0,0,0
5645703,0,0,0
5645706,0,0,0
5645708,0,0,0
5645711,0,0,0
5645714,0,0,0
5645716,0,0,0
5645719,0,0,0
5645721,0,0,0
5645724,0,0,0
5645726,0,0,0
5645729,0,0,0
5645732,0,0,0
5645734,0,0,0
5645737,0,0,0
5645740,0,0,0
5645743,0,0,0
5645745,0,0,0
5645748,0,0,0
5645751,0,0,0
5645753,0,0,0
5645756,0,0,0
5645758,0,0,0
5645761,0,0,0
5645763,0,0,0
5645766,0,0,0
5645769,0,0,0
5645771,0,0,0
5645774,0,0,0
5645776,0,0,0
5645779,0,0,0
5645782,0,0,0
5645785,0,0,0
5645788,0,0,0
5645790,0,0,0
5645793,0,0,0
5645795,0,0,0
5645798,0,0,0
5645800,0,0,0
5645803,0,0,0
5645806,0,0,0
5645808,0,0,0
5645811,0,0,0
5645813,0,0,0
5645816,0,0,0
5645818,0,0,0
5645821,0,0,0
5645825,0,0,0
5645827,0,0,0
5645830,0,0,0
5645832,0,0,0
5645835,0,0,0
5645837,0,0,0
5645840,0,0,0
5645843,0,0,0
5645845,0,0,0
5645848,0,0,0
5645850,0,0,0
5645853,0,0,0
5645856,0,0,0
5645858,0,0,0
5645861,0,0,0
5645863,0,0,0
5645867,0,0,0
5645869,0,0,0
5645872,0,0,0
5645875,0,0,0
5645877,0,0,0
5645880,0,0,0
5645882,0,0,0
5645885,0,0,0
5645887,0,0,0
5645890,0,0,0
5645893,0,0,0
5645895,0,0,0
5645898,0,0,0
5645900,0,0,0
5645903,0,0,0
5645905,0,0,0
5645908,0,0,0
5645912,0,0,0
5645914,0,0,0
5645917,0,0,0
5645919,0,0,0
5645922,0,0,0
5645924,0,0,0
5645927,0,0,0
5645930,0,0,0
5645932,0,0,0
5645935,0,0,0
5645937,0,0,0
5645940,0,0,0
5645942,0,0,0
5645945,0,0,0
5645948,0,0,0
5645950,0,0,0
5645954,0,0,0
5645956,0,0,0
5645959,0,0,0
5645961,0,0,0
5645964,0,0,0
5645967,0,0,0
5645969,0,0,0
5645972,0,0,0
5645974,0,0,0
5645977,0,0,0
5645979,0,0,0
5645982,0,0,0
5645985,0,0,0
5645987,0,0,0
5645990,0,0,0
5645992,0,0,0
5645996,0,0,0
5645998,0,0,0
5646001,0,0,0
5646004,0,0,0
5646006,0,0,0
5646009,0,0,0
5646011,0,0,0
5646014,0,0,0
5646016,0,0,0
5646019,0,0,0
5646022,0,0,0
5646024,0,0,0
5646027,0,0,0
5646029,0,0,0
5646032,0,0,0
5646034,0,0,0
5646038,0,0,0
5646041,0,0,0
5646043,0,0,0
5646046,0,0,0
5646048,0,0,0
5646051,0,0,0
5646054,0,0,0
5646056,0,0,0
5646059,0,0,0
5646061,0,0,0
5646064,0,0,0
5646066,0,0,0
5646069,0,0,0
5646072,0,0,0
5646074,0,0,0
5646077,0,0,0
5646080,0,0,0
5646083,0,0,0
5646085,0,0,0
5646088,0,0,0
5646091,0,0,0
5646093,0,0,0
5646096,0,0,0
5646098,0,0,0
5646101,0,0,0
5646103,0,0,0
5646106,0,0,0
5646109,0,0,0
5646111,0,0,0
5646114,0,0,0
5646116,0,0,0
5646119,0,0,0
5646121,0,0,0
5646125,0,0,0
5646128,0,0,0
5646130,0,0,0
5646133,0,0,0
5646135,0,0,0
5646138,0,0,0
5646140,0,0,0
5646143,0,0,0
5646146,0,0,0
5646148,0,0,0
5646151,0,0,0
5646153,0,0,0
5646156,0,0,0
5646158,0,0,0
5646161,0,0,0
5646164,0,0,0
5646167,0,0,0
5646170,0,0,0
5646172,0,0,0
5646175,0,0,0
5646177,0,0,0
5646180,0,0,0
5646183,0,0,0
5646185,0,0,0
5646188,0,0,0
5646190,0,0,0
5646193,0,0,0
5646195,0,0,0
5646198,0,0,0
5646201,0,0,0
5646203,0,0,0
5646206,0,0,0
5646209,0,0,0
5646212,0,0,0
5646214,0,0,0
5646217,0,0,0
5646220,0,0,0
5646222,0,0,0
5646225,0,0,0
5646227,0,0,0
5646230,0,0,0
5646232,0,0,0
5646235,0,0,0
5646238,0,0,0
5646240,0,0,0
5646243,0,0,0
5646245,0,0,0
5646248,0,0,0
5646251,0,0,0
5646254,0,0,0
5646257,0,0,0
5646259,0,0,0
5646262,0,0,0
5646264,0,0,0
5646267,0,0,0
5646270,0,0,0
5646272,0,0,0
5646275,0,0,0
5646277,0,0,0
5646280,0,0,0
5646282,0,0,0
5646285,0,0,0
5646288,0,0,0
5646290,0,0,0
5646294,0,0,0
5646296,0,0,0
5646299,0,0,0
5646301,0,0,0
5646304,0,0,0
5646307,0,0,0
5646309,0,0,0
5646312,0,0,0
5646314,0,0,0
5646317,0,0,0
5646319,0,0,0
5646322,0,0,0
5646325,0,0,0
5646327,0,0,0
5646330,0,0,0
5646332,0,0,0
5646336,0,0,0
5646338,0,0,0
5646341,0,0,0
5646344,0,0,0
5646346,0,0,0
5646349,0,0,0
5646351,0,0,0
5646354,0,0,0
5646356,0,0,0
5646359,0,0,0
5646362,0,0,0
5646364,0,0,0
5646367,0,0,0
5646369,0,0,0
5646372,0,0,0
5646374,0,0,0
5646377,0,0,0
5646381,0,0,0
5646383,0,0,0
5646386,0,0,0
5646388,0,0,0
5646391,0,0,0
5646393,0,0,0
5646396,0,0,0
5646399,0,0,0
5646401,0,0,0
5646404,0,0,0
5646406,0,0,0
5646409,0,0,0
5646411,0,0,0
5646414,0,0,0
5646417,0,0,0
5646419,0,0,0
5646423,0,0,0
5646425,0,0,0
5646428,0,0,0
5646430,0,0,0
5646433,0,0,0
5646436,0,0,0
5646438,0,0,0
5646441,0,0,0
5646443,0,0,0
5646446,0,0,0
5646448,0,0,0
5646451,0,0,0
5646454,0,0,0
5646456,0,0,0
5646459,0,0,0
5646461,0,0,0
5646465,0,0,0
5646468,0.1027921,0.1027921,0
5646470,0.1938267,0.1928145,0
5646473,0.1938267,0.1928145,0
5646475,0.3238513,0.3232465,0
5646478,0.3711503,0.3711503,0
5646480,0.3711503,0.3711503,0
5646483,0.409739,0.4092611,0
5646486,0.409739,0.4092611,0
5646488,0.4660423,0.4660423,0
5646491,0.4865827,0.4865827,0
5646493,0.4865827,0.4865827,0
5646496,0.5035778,0.5035778,0
5646498,0.5185105,0.5185105,0
5646501,0.5185105,0.5185105,0
5646504,0.5424856,0.5424856,0
5646507,0.5521386,0.5521386,0
5646510,0.5521386,0.5521386,0
5646512,0.5598809,0.5598809,0
5646515,0.5678623,0.5678623,0
5646517,0.5678623,0.5678623,0
5646520,0.5712977,0.5712977,0
5646523,0.5712977,0.5712977,0
5646525,0.5712977,0.5709552,0
5646528,0.5716401,0.5712977,0
5646530,0.5716401,0.5712977,0
5646533,0.5688952,0.5685511,0
5646535,0.5623221,0.5619739,0
5646538,0.5623221,0.5619739,0
5646541,0.5595313,0.5588315,0
5646543,0.5567266,0.556375,0.01978234
5646546,0.5567266,0.556375,0.01978234
5646548,0.5517841,0.5510744,0.01978234
5646552,0.5500081,0.5489398,0.01978234
5646554,0.5500081,0.5489398,0.01978234
5646557,0.5478694,0.5471546,0
5646560,0.5435666,0.5424856,0.02797646
5646562,0.5435666,0.5424856,0.02797646
5646565,0.5410409,0.5403171,0.02797646
5646567,0.5410409,0.5403171,0.02797646
5646570,0.5395923,0.5385033,0.02797646
5646572,0.5385033,0.5381398,0.02797646
5646575,0.5385033,0.5381398,0.02797646
5646578,0.5381398,0.5377761,0.02797646
5646580,0.5392296,0.5381398,0
5646583,0.5392296,0.5381398,0
5646585,0.5395923,0.5395923,0.01978234
5646588,0.5399548,0.5395923,0.02797646
5646590,0.5399548,0.5395923,0.02797646
5646594,0.5406791,0.5395923,0.02797646
5646597,0.5406791,0.5399548,0.02797646
5646599,0.5406791,0.5399548,0.02797646
5646602,0.5410409,0.5403171,0.02797646
5646604,0.5410409,0.5403171,0.02797646
5646607,0.5410409,0.5406791,0
5646609,0.5414024,0.5410409,0.02797646
5646612,0.5414024,0.5410409,0.02797646
5646615,0.5414024,0.5406791,0
5646617,0.5414024,0.5406791,0.02797646
5646620,0.5414024,0.5406791,0.02797646
5646622,0.5439265,0.5432066,0
5646625,0.5475121,0.5471546,0.02797646
5646627,0.5475121,0.5471546,0.02797646
5646630,0.5514293,0.5503638,0.02797646
5646633,0.5570779,0.5567266,0.02797646
5646636,0.5570779,0.5567266,0.02797646
5646639,0.5598809,0.5595313,0.02797646
5646641,0.5598809,0.5595313,0.02797646
5646644,0.5623221,0.5616257,0.02797646
5646646,0.564406,0.564406,0
5646649,0.564406,0.564406,0
5646652,0.5654452,0.564406,0.02797646
5646654,0.5671728,0.5661368,0.02797646
5646657,0.5671728,0.5661368,0.02797646
5646659,0.5695826,0.5688952,0.02797646
5646662,0.5706123,0.5702693,0
5646664,0.5706123,0.5702693,0
5646667,0.5726661,0.5726661,0
5646670,0.5723243,0.5723243,0
5646672,0.5723243,0.5723243,0
5646675,0.5719823,0.5723243,0
5646678,0.5719823,0.5723243,0
5646681,0.5733491,0.5736903,0
5646684,0.5747126,0.575053,0
5646686,0.5747126,0.575053,0
5646689,0.5757331,0.5757331,0.02797646
5646691,0.5753932,0.5757331,0
5646694,0.5753932,0.5757331,0
5646696,0.5719823,0.5719823,0
5646699,0.5695826,0.5695826,0
5646702,0.5695826,0.5695826,0
5646704,0.5661368,0.5664824,0
5646707,0.5654452,0.5654452,0
5646709,0.5654452,0.5654452,0
5646712,0.5654452,0.5654452,0
5646714,0.5654452,0.5654452,0
5646717,0.5650989,0.5654452,0
5646721,0.564406,0.564406,0
5646723,0.564406,0.564406,0
5646726,0.5637122,0.5637122,0
5646728,0.563365,0.563365,0
5646731,0.563365,0.563365,0
5646733,0.5640592,0.5637122,0
5646736,0.5619739,0.5616257,0
5646739,0.5619739,0.5616257,0
5646741,0.5602303,0.5595313,0.02797646
5646744,0.5570779,0.5574291,0
5646746,0.5570779,0.5574291,0
5646749,0.5560232,0.555319,0.02797646
5646751,0.5560232,0.555319,0.02797646
5646754,0.5524929,0.5517841,0
5646757,0.5507192,0.5503638,0
5646759,0.5507192,0.5503638,0
5646763,0.5496522,0.5492961,0
5646765,0.5485832,0.5485832,0.02797646
5646768,0.5485832,0.5485832,0.02797646
5646770,0.5482264,0.5478694,0.02797646
5646773,0.5478694,0.5478694,0
5646776,0.5478694,0.5478694,0
5646778,0.5475121,0.5475121,0
5646781,0.5489398,0.5485832,0
5646783,0.5489398,0.5485832,0
5646786,0.5496522,0.5492961,0
5646788,0.5496522,0.5492961,0
5646791,0.5514293,0.5507192,0.02797646
5646794,0.5517841,0.5521386,0
5646796,0.5517841,0.5521386,0
5646799,0.5517841,0.5521386,0
5646801,0.5524929,0.5517841,0.02797646
5646804,0.5524929,0.5517841,0.02797646
5646807,0.5535544,0.5532007,0.02797646
5646810,0.5546138,0.5542608,0.02797646
5646813,0.5546138,0.5542608,0.02797646
5646815,0.5570779,0.5567266,0
5646818,0.5602303,0.5602303,0.02797646
5646820,0.5602303,0.5602303,0.02797646
5646823,0.5609285,0.5605795,0.02797646
5646825,0.5609285,0.5605795,0.02797646
5646828,0.5612772,0.5612772,0.02797646
5646831,0.5591815,0.5584812,0.02797646
5646833,0.5591815,0.5584812,0.02797646
5646836,0.5584812,0.55778,0
5646838,0.5567266,0.5560232,0
5646841,0.5567266,0.5560232,0
5646843,0.5549665,0.5549665,0.02797646
5646846,0.5517841,0.5517841,0
5646850,0.5517841,0.5517841,0
5646852,0.5503638,0.5507192,0
5646855,0.5485832,0.5482264,0
5646857,0.5485832,0.5482264,0
5646860,0.5467969,0.5464389,0.02797646
5646862,0.5467969,0.5464389,0.02797646
5646865,0.5450047,0.5446455,0
5646868,0.5442861,0.5439265,0
5646870,0.5442861,0.5439265,0
5646873,0.5428462,0.5424856,0.02797646
5646875,0.5414024,0.5414024,0
5646878,0.5414024,0.5414024,0
5646881,0.5410409,0.5406791,0.02797646
5646883,0.5406791,0.5406791,0
5646886,0.5406791,0.5406791,0
5646888,0.5410409,0.5414024,0
5646892,0.5414024,0.5414024,0.02797646
5646894,0.5414024,0.5414024,0.02797646
5646897,0.5432066,0.5428462,0
5646900,0.5439265,0.5435666,0
5646902,0.5439265,0.5435666,0
5646905,0.5482264,0.5482264,0
5646907,0.5482264,0.5482264,0
5646910,0.5514293,0.5514293,0
5646912,0.55778,0.55778,0.02797646
5646915,0.55778,0.55778,0.02797646
5646918,0.5605795,0.5605795,0.02797646
5646920,0.563365,0.5623221,0
5646923,0.563365,0.5623221,0
5646925,0.5654452,0.564406,0.02797646
5646928,0.5668277,0.5661368,0.02797646
5646930,0.5668277,0.5661368,0.02797646
5646934,0.5712977,0.5706123,0.01978234
5646937,0.569239,0.5688952,0.02797646
5646939,0.569239,0.5688952,0.02797646
5646942,0.5675176,0.5671728,0.03426402
5646944,0.5675176,0.5671728,0.03426402
5646947,0.5654452,0.5650989,0.03426402
5646949,0.5640592,0.563365,0.02797646
5646952,0.5640592,0.563365,0.02797646
5646955,0.5626699,0.5612772,0.03426402
5646957,0.5605795,0.5595313,0.03426402
5646960,0.5605795,0.5595313,0.03426402
5646962,0.5591815,0.5584812,0.03426402
5646965,0.5574291,0.5570779,0.03426402
5646967,0.5574291,0.5570779,0.03426402
5646970,0.5567266,0.5556712,0.02797646
5646973,0.5539077,0.5528469,0.02797646
5646976,0.5539077,0.5528469,0.02797646
5646979,0.5510744,0.5503638,0
5646981,0.5510744,0.5503638,0
5646984,0.5457222,0.5446455,0.02797646
5646986,0.5406791,0.5403171,0.02797646
5646989,0.5406791,0.5403171,0.02797646
5646992,0.5392296,0.5388666,0.02797646
5646994,0.5392296,0.5388666,0.02797646
5646997,0.5392296,0.5388666,0.02797646
5646999,0.5403171,0.5399548,0.02797646
5647002,0.5424856,0.5417637,0.02797646
5647004,0.5424856,0.5417637,0.02797646
5647007,0.5435666,0.5432066,0
5647010,0.5442861,0.5442861,0.02797646
5647012,0.5442861,0.5442861,0.02797646
5647015,0.5460806,0.5457222,0
5647017,0.5460806,0.5457222,0
5647021,0.5471546,0.5467969,0
5647023,0.5460806,0.5460806,0.02797646
5647026,0.5460806,0.5460806,0.02797646
5647029,0.5450047,0.5450047,0
5647031,0.5478694,0.5478694,0
5647034,0.5478694,0.5478694,0
5647036,0.5503638,0.5503638,0
5647039,0.555319,0.5549665,0.02797646
5647041,0.5591815,0.5595313,0
5647044,0.5630175,0.5626699,0.02797646
5647047,0.5668277,0.5664824,0
5647049,0.5668277,0.5664824,0
5647052,0.5702693,0.5699261,0
5647054,0.5702693,0.5699261,0
5647057,0.5730078,0.5730078,0
5647059,0.5747126,0.575053,0
5647063,0.5747126,0.575053,0
5647066,0.5804718,0.5801346,0
5647068,0.5848376,0.5845029,0
5647071,0.5848376,0.5845029,0
5647073,0.5885065,0.5881739,0
5647076,0.5951191,0.5954478,0
5647078,0.5951191,0.5954478,0
5647081,0.598071,0.5977437,0.02797646
5647084,0.5997046,0.6000308,0.02797646
5647086,0.5997046,0.6000308,0.02797646
5647089,0.6013339,0.6013339,0
5647091,0.6013339,0.6013339,0
5647094,0.6023093,0.6023093,0.02797646
5647097,0.6006827,0.6006827,0
5647099,0.6006827,0.6006827,0
5647102,0.6003569,0.6003569,0.02797646
5647105,0.6003569,0.6000308,0
5647108,0.6003569,0.6000308,0
5647110,0.6000308,0.6000308,0
5647113,0.5961047,0.5957764,0
5647116,0.5961047,0.5957764,0
5647118,0.5901666,0.590498,0.02797646
5647121,0.5888388,0.5888388,0
5647123,0.5888388,0.5888388,0
5647126,0.587175,0.5875081,0.02797646
5647128,0.587175,0.5875081,0.02797646
5647131,0.5821548,0.5824909,0
5647134,0.5791218,0.5794597,0
5647136,0.5791218,0.5794597,0
5647139,0.5743721,0.5747126,0
5647141,0.5671728,0.5675176,0
5647144,0.5671728,0.5675176,0
5647147,0.5612772,0.5619739,0
5647150,0.5535544,0.5535544,0.02797646
5647153,0.5535544,0.5535544,0.02797646
5647155,0.5442861,0.5450047,0
5647158,0.5381398,0.5377761,0.02797646
5647160,0.5381398,0.5377761,0.02797646
5647163,0.5322903,0.5322903,0
5647165,0.5322903,0.5322903,0
5647168,0.5222706,0.5222706,0
5647171,0.5158621,0.5158621,0.02797646
5647173,0.5158621,0.5158621,0.02797646
5647176,0.5066768,0.5066768,0
5647178,0.5035778,0.5039662,0
5647181,0.5035778,0.5039662,0
5647183,0.501241,0.5008504,0
5647186,0.4969283,0.4965344,0.02797646
5647190,0.4969283,0.4965344,0.02797646
5647192,0.4953507,0.4945601,0
5647195,0.4873863,0.4869847,0.01978234
5647197,0.4873863,0.4869847,0.01978234
5647200,0.4825446,0.4825446,0.02797646
5647202,0.4825446,0.4825446,0.02797646
5647205,0.4796977,0.4788812,0.02797646
5647208,0.4805128,0.4801054,0.02797646
5647210,0.4805128,0.4801054,0.02797646
5647213,0.4805128,0.4805128,0.02797646
5647215,0.4833549,0.4829499,0.02797646
5647218,0.4833549,0.4829499,0.02797646
5647220,0.4841639,0.4841639,0
5647223,0.4849715,0.4853748,0
5647226,0.4849715,0.4853748,0
5647228,0.4877876,0.4877876,0.02797646
5647232,0.4889896,0.4889896,0
5647234,0.4889896,0.4889896,0
5647237,0.4905876,0.4901886,0.02797646
5647239,0.4957456,0.4953507,0.02797646
5647242,0.4957456,0.4953507,0.02797646
5647245,0.4977152,0.4973219,0.02797646
5647247,0.4977152,0.4973219,0.02797646
5647250,0.5035778,0.5028,0
5647252,0.5101407,0.509757,0.02797646
5647255,0.5101407,0.509757,0.02797646
5647257,0.5116726,0.5116726,0
5647260,0.5128186,0.5128186,0
5647263,0.5128186,0.5128186,0
5647265,0.5166202,0.5162413,0
5647268,0.5177552,0.5173771,0
5647270,0.5177552,0.5173771,0
5647273,0.5278606,0.5278606,0.02797646
5647276,0.5315546,0.5315546,0
5647279,0.5315546,0.5315546,0
5647282,0.5322903,0.5319225,0.02797646
5647284,0.5322903,0.5319225,0.02797646
5647287,0.533025,0.533025,0.02797646
5647289,0.5341251,0.533392,0
5647292,0.5341251,0.533392,0
5647295,0.5344914,0.5337587,0
5647297,0.5308178,0.530449,0.02797646
5647300,0.5308178,0.530449,0.02797646
5647302,0.5297108,0.5289715,0.02797646
5647305,0.5297108,0.5293413,0
5647307,0.5297108,0.5293413,0
5647310,0.5293413,0.5286014,0
5647313,0.5286014,0.5278606,0.02797646
5647315,0.5286014,0.5278606,0.02797646
5647319,0.5278606,0.5271187,0.02797646
5647321,0.5278606,0.5271187,0.02797646
5647324,0.530449,0.5293413,0.02797646
5647326,0.5337587,0.533025,0
5647329,0.5337587,0.533025,0
5647332,0.5352231,0.5344914,0.02797646
5647334,0.5363187,0.5355885,0.02797646
5647337,0.5363187,0.5355885,0.02797646
5647339,0.5370479,0.5363187,0
5647342,0.5370479,0.5363187,0.02797646
5647344,0.5370479,0.5363187,0.02797646
5647347,0.5374122,0.5370479,0.02797646
5647350,0.5377761,0.5374122,0
5647352,0.5377761,0.5374122,0
5647355,0.5406791,0.5403171,0.02797646
5647357,0.5406791,0.5403171,0.02797646
5647361,0.5432066,0.5424856,0.02797646
5647363,0.5453635,0.5450047,0.02797646
5647366,0.5453635,0.5450047,0.02797646
5647369,0.5453635,0.5450047,0
5647371,0.5460806,0.5460806,0.02797646
5647374,0.5460806,0.5460806,0.02797646
5647376,0.5460806,0.5460806,0.02797646
5647379,0.5478694,0.5478694,0.02797646
5647381,0.5478694,0.5478694,0.02797646
5647384,0.5496522,0.5500081,0
5647387,0.5503638,0.5507192,0
5647389,0.5503638,0.5507192,0
5647392,0.5521386,0.5521386,0
5647394,0.5521386,0.5521386,0
5647397,0.5500081,0.5503638,0.02797646
5647399,0.5475121,0.5478694,0
5647403,0.5475121,0.5478694,0
5647406,0.5457222,0.5464389,0
5647408,0.5424856,0.5435666,0
5647411,0.5424856,0.5435666,0
5647413,0.5424856,0.5424856,0
5647416,0.5410409,0.5421248,0
5647418,0.5410409,0.5421248,0
5647421,0.5406791,0.5417637,0
5647424,0.5399548,0.5410409,0
5647426,0.5399548,0.5410409,0
5647429,0.5417637,0.5421248,0
5647431,0.5417637,0.5421248,0
5647434,0.5442861,0.5450047,0
5647436,0.5478694,0.5485832,0
5647439,0.5478694,0.5485832,0
5647442,0.5510744,0.5514293,0
5647444,0.555319,0.5556712,0
5647448,0.555319,0.5556712,0
5647450,0.556375,0.5567266,0.02797646
5647453,0.5574291,0.5584812,0.02797646
5647455,0.5574291,0.5584812,0.02797646
5647458,0.5542608,0.5549665,0
5647461,0.5532007,0.5535544,0
5647463,0.5532007,0.5535544,0
5647466,0.5539077,0.5546138,0
5647468,0.5539077,0.5546138,0
5647471,0.5546138,0.5549665,0
5647473,0.55778,0.55778,0
5647476,0.55778,0.55778,0
5647479,0.5581307,0.5584812,0
5647481,0.5588315,0.5591815,0
5647484,0.5588315,0.5591815,0
5647486,0.55778,0.5584812,0.02797646
5647490,0.5570779,0.55778,0
5647492,0.5570779,0.55778,0
5647495,0.5570779,0.55778,0
5647498,0.5570779,0.55778,0
5647500,0.5570779,0.55778,0
5647503,0.5556712,0.5560232,0
5647505,0.5556712,0.5560232,0
5647508,0.5542608,0.5546138,0.02797646
5647511,0.5528469,0.5532007,0.02797646
5647513,0.5528469,0.5532007,0.02797646
5647516,0.5521386,0.5521386,0.02797646
5647518,0.5514293,0.5517841,0
5647521,0.5514293,0.5517841,0
5647523,0.5503638,0.5507192,0.02797646
5647526,0.5492961,0.5492961,0.02797646
5647529,0.5492961,0.5492961,0.02797646
5647532,0.5464389,0.5464389,0.02797646
5647535,0.5453635,0.5453635,0.02797646
5647537,0.5453635,0.5453635,0.02797646
5647540,0.5432066,0.5432066,0.02797646
5647542,0.5428462,0.5424856,0.02797646
5647545,0.5428462,0.5424856,0.02797646
5647548,0.5417637,0.5417637,0.02797646
5647550,0.5417637,0.5417637,0.02797646
5647553,0.5406791,0.5406791,0.02797646
5647555,0.5388666,0.5388666,0.02797646
5647558,0.5388666,0.5388666,0.02797646
5647560,0.5377761,0.5374122,0.02797646
5647563,0.5355885,0.5352231,0.03956468
5647566,0.5355885,0.5352231,0.03956468
5647568,0.5348573,0.5341251,0.03956468
5647571,0.533392,0.5326577,0.02797646
5647574,0.533392,0.5326577,0.02797646
5647577,0.5326577,0.5322903,0.02797646
5647579,0.5319225,0.5308178,0.03956468
5647582,0.5319225,0.5308178,0.03956468
5647585,0.5322903,0.5308178,0.02797646
5647587,0.5322903,0.5308178,0.02797646
5647590,0.5308178,0.5297108,0.03956468
5647592,0.5282311,0.5271187,0.03956468
5647595,0.5282311,0.5271187,0.03956468
5647597,0.5271187,0.5260038,0.03426402
5647600,0.5260038,0.5252593,0.03956468
5647603,0.5260038,0.5252593,0.03956468
5647605,0.5230194,0.5218958,0.04423466
5647608,0.5211454,0.5200178,0.03956468
5647610,0.5211454,0.5200178,0.03956468
5647613,0.518133,0.5177552,0.03956468
5647616,0.5154827,0.5132,0.03956468
5647619,0.5154827,0.5132,0.03956468
5647622,0.5154827,0.513962,0.03956468
5647624,0.5154827,0.513962,0.03956468
5647627,0.5162413,0.5143426,0.04845664
5647629,0.5177552,0.5154827,0.04423466
5647632,0.5177552,0.5154827,0.04423466
5647634,0.518133,0.5158621,0.04423466
5647637,0.5185105,0.5162413,0.04845664
5647640,0.5185105,0.5162413,0.04845664
5647642,0.5151029,0.5124369,0.04845664
5647645,0.5135812,0.5116726,0.04423466
5647647,0.5135812,0.5116726,0.04423466
5647650,0.5128186,0.5105241,0.04845664
5647652,0.5105241,0.5082192,0.04845664
5647655,0.5105241,0.5082192,0.04845664
5647659,0.509757,0.5074486,0.04845664
5647661,0.509757,0.5074486,0.04845664
5647664,0.5093729,0.5070629,0.04845664
5647666,0.5101407,0.5074486,0.05233916
5647669,0.5101407,0.5074486,0.05233916
5647671,0.5093729,0.5074486,0.05233916
5647674,0.5116726,0.5082192,0.05233916
5647677,0.5116726,0.5082192,0.05233916
5647679,0.5135812,0.5101407,0.05595291
5647682,0.5158621,0.5128186,0.05595291
5647684,0.5158621,0.5128186,0.05595291
5647687,0.5162413,0.5135812,0.05595291
5647689,0.5166202,0.513962,0.04845664
5647692,0.5166202,0.513962,0.04845664
5647695,0.5188877,0.5162413,0.05595291
5647697,0.5188877,0.5162413,0.05595291
5647700,0.5218958,0.5192646,0.05595291
5647703,0.5237671,0.5211454,0.04845664
5647706,0.5237671,0.5211454,0.04845664
5647708,0.5252593,0.5226451,0.04845664
5647711,0.5286014,0.5256317,0.05595291
5647714,0.5286014,0.5256317,0.05595291
5647716,0.5297108,0.5271187,0.05595291
5647719,0.5308178,0.5282311,0.05233916
5647721,0.5308178,0.5282311,0.05233916
5647724,0.53008,0.5278606,0.05233916
5647727,0.5297108,0.5278606,0.05233916
5647729,0.5297108,0.5278606,0.05233916
5647732,0.5289715,0.5271187,0.04845664
5647734,0.5289715,0.5271187,0.04845664
5647737,0.5289715,0.5267473,0.05233916
5647739,0.5274898,0.5252593,0.04845664
5647742,0.5260038,0.5248867,0.04845664
5647746,0.5252593,0.5237671,0.04423466
5647748,0.5237671,0.5222706,0.03956468
5647751,0.5237671,0.5222706,0.03956468
5647753,0.5226451,0.5215207,0.04423466
5647756,0.5151029,0.5132,0.04845664
5647758,0.5151029,0.5132,0.04845664
5647761,0.5066768,0.5051297,0.04845664
5647764,0.5047422,0.5031891,0.04423466
5647766,0.5047422,0.5031891,0.04423466
5647769,0.5031891,0.5020211,0.04423466
5647771,0.5031891,0.5020211,0.04423466
5647774,0.501241,0.5000685,0.04845664
5647776,0.5004597,0.4988932,0.04845664
5647779,0.5004597,0.4988932,0.04845664
5647782,0.501241,0.5000685,0.04423466
5647784,0.5031891,0.5020211,0.04845664
5647788,0.5031891,0.5020211,0.04845664
5647790,0.5035778,0.5028,0.03956468
5647793,0.5043544,0.5035778,0.04423466
5647795,0.5043544,0.5035778,0.04423466
5647798,0.5031891,0.5024107,0.05233916
5647801,0.5016313,0.5000685,0.05233916
5647803,0.5016313,0.5000685,0.05233916
5647806,0.5008504,0.4988932,0.05233916
5647808,0.5008504,0.4988932,0.05233916
5647811,0.4992853,0.4981082,0.04845664
5647813,0.4992853,0.4969283,0.04845664
5647816,0.4992853,0.4969283,0.04845664
5647819,0.4985009,0.4961402,0.05595291
5647821,0.4973219,0.4945601,0.05595291
5647824,0.4973219,0.4945601,0.05595291
5647826,0.4969283,0.4937682,0.05934703
5647830,0.4949555,0.4917827,0.05595291
5647832,0.4949555,0.4917827,0.05595291
5647835,0.4929749,0.4901886,0.05595291
5647838,0.4893896,0.4865827,0.06255726
5647840,0.4893896,0.4865827,0.06255726
5647843,0.4885893,0.4857778,0.05934703
5647845,0.4885893,0.4857778,0.05934703
5647848,0.4873863,0.4845679,0.05934703
5647850,0.4865827,0.4837596,0.05233916
5647853,0.4865827,0.4837596,0.05233916
5647856,0.4841639,0.4809199,0.05595291
5647858,0.4829499,0.4796977,0.06255726
5647861,0.4829499,0.4796977,0.06255726
5647863,0.4780633,0.4751895,0.05934703
5647866,0.4735395,0.4706381,0.05595291
5647868,0.4735395,0.4706381,0.05595291
5647872,0.4693892,0.466462,0.05934703
5647875,0.4673002,0.4643598,0.05934703
5647877,0.4673002,0.4643598,0.05934703
5647880,0.4660423,0.4639383,0.05595291
5647882,0.4656223,0.4626713,0.05934703
5647885,0.4656223,0.4626713,0.05934703
5647887,0.4660423,0.463094,0.06255726
5647890,0.4660423,0.463094,0.06255726
5647893,0.4660423,0.463094,0.06255726
5647895,0.4639383,0.4609765,0.05934703
5647898,0.4639383,0.4609765,0.05934703
5647900,0.4609765,0.4579955,0.05934703
5647903,0.4584226,0.4554249,0.06255726
5647905,0.4584226,0.4554249,0.06255726
5647908,0.4558544,0.4532716,0.05934703
5647911,0.4579955,0.453703,0.06255726
5647913,0.4579955,0.453703,0.06255726
5647917,0.4601268,0.4562834,0.06255726
5647919,0.4660423,0.4622481,0.06255726
5647922,0.4660423,0.4622481,0.06255726
5647925,0.4685547,0.4652019,0.0656106
5647927,0.4685547,0.4652019,0.0656106
5647930,0.477244,0.4731261,0.06255726
5647932,0.4817329,0.4776538,0.06852804
5647935,0.4817329,0.4776538,0.06852804
5647937,0.4865827,0.4825446,0.06255726
5647940,0.4933717,0.4897892,0.06255726
5647943,0.4933717,0.4897892,0.06255726
5647945,0.4977152,0.4937682,0.0656106
5647948,0.5016313,0.4973219,0.0656106
5647950,0.5016313,0.4973219,0.0656106
5647953,0.5074486,0.5031891,0.06852804
5647955,0.5101407,0.5059038,0.0656106
5647959,0.5101407,0.5059038,0.0656106
5647962,0.5128186,0.5078341,0.06852804
5647964,0.5128186,0.5078341,0.06852804
5647967,0.5093729,0.5043544,0.06852804
5647969,0.5039662,0.4985009,0.07132626
5647972,0.5039662,0.4985009,0.07132626
5647974,0.4961402,0.4905876,0.07661668
5647977,0.4941643,0.4877876,0.07661668
5647980,0.4941643,0.4877876,0.07661668
5647982,0.4877876,0.4809199,0.07912937
5647985,0.4857778,0.4784724,0.07912937
5647987,0.4857778,0.4784724,0.07912937
5647990,0.4792896,0.4718838,0.08156469
5647992,0.4764233,0.4693892,0.08392937
5647995,0.4764233,0.4693892,0.08392937
5647998,0.468137,0.4597013,0.08392937
5648001,0.468137,0.4597013,0.08392937
5648004,0.4584226,0.4515415,0.08392937
5648006,0.4545648,0.4458725,0.08622923
5648009,0.4545648,0.4458725,0.08622923
5648011,0.4471871,0.4387946,0.08156469
5648014,0.4445539,0.4361108,0.08622923
5648017,0.4445539,0.4361108,0.08622923
5648019,0.4405747,0.4325065,0.08846933
5648022,0.4338616,0.4256662,0.08156469
5648024,0.4338616,0.4256662,0.08156469
5648027,0.4320539,0.4238235,0.08622923
5648029,0.4261257,0.4187142,0.07912937
5648032,0.4261257,0.4187142,0.07912937
5648035,0.4238235,0.4159008,0.08392937
5648037,0.4238235,0.4159008,0.08392937
5648040,0.4177785,0.4102162,0.07912937
5648043,0.4140146,0.4063823,0.08156469
5648046,0.4140146,0.4063823,0.08156469
5648048,0.4130683,0.4054182,0.08156469
5648051,0.4111691,0.4044518,0.07661668
5648054,0.4111691,0.4044518,0.07661668
5648056,0.4083038,0.4010509,0.07912937
5648059,0.4073442,0.4000739,0.07401875
5648061,0.4073442,0.4000739,0.07401875
5648064,0.4044518,0.3990945,0.07132626
5648066,0.4039677,0.3981127,0.06852804
5648069,0.4039677,0.3981127,0.06852804
5648072,0.4039677,0.3981127,0.06852804
5648074,0.4039677,0.3981127,0.06852804
5648077,0.403483,0.3976209,0.07132626
5648079,0.4015385,0.3971285,0.0656106
5648082,0.4015385,0.3971285,0.0656106
5648084,0.3990945,0.3941611,0.06255726
5648088,0.3981127,0.393167,0.06255726
5648091,0.3981127,0.393167,0.06255726
5648093,0.3971285,0.3921704,0.0656106
5648096,0.3976209,0.392669,0.06852804
5648098,0.3976209,0.392669,0.06852804
5648101,0.3990945,0.3936644,0.0656106
5648103,0.4020255,0.3966355,0.06255726
5648106,0.4020255,0.3966355,0.06255726
5648109,0.4025119,0.3981127,0.05934703
5648111,0.4025119,0.3981127,0.05934703
5648114,0.4029978,0.3986039,0.0656106
5648116,0.4029978,0.3986039,0.06255726
5648119,0.4029978,0.3986039,0.06255726
5648121,0.4063823,0.4015385,0.0656106
5648124,0.4102162,0.4054182,0.06255726
5648128,0.4102162,0.4054182,0.06255726
5648130,0.4135417,0.4083038,0.06255726
5648133,0.4182466,0.4135417,0.0656106
5648135,0.4182466,0.4135417,0.0656106
5648138,0.4242849,0.4196478,0.06255726
5648141,0.4261257,0.4219727,0.06255726
5648143,0.4261257,0.4219727,0.06255726
5648146,0.4288719,0.4242849,0.05934703
5648148,0.4288719,0.4242849,0.05934703
5648151,0.429328,0.4252063,0.05934703
5648153,0.429328,0.4242849,0.06255726
5648156,0.429328,0.4242849,0.06255726
5648159,0.4284154,0.4247459,0.0656106
5648161,0.429328,0.4247459,0.0656106
5648164,0.429328,0.4247459,0.0656106
5648166,0.4316007,0.4265846,0.0656106
5648169,0.4242849,0.4196478,0.0656106
5648172,0.4242849,0.4196478,0.0656106
5648175,0.4149588,0.409739,0.06852804
5648178,0.4111691,0.4049353,0.07661668
5648180,0.4111691,0.4049353,0.07661668
5648183,0.4102162,0.403483,0.07401875
5648185,0.4102162,0.403483,0.07401875
5648188,0.410693,0.4039677,0.07132626
5648190,0.4121198,0.4054182,0.07401875
5648193,0.4121198,0.4054182,0.07401875
5648196,0.414487,0.4083038,0.07661668
5648198,0.4159008,0.4087828,0.07401875
5648201,0.4159008,0.4087828,0.07401875
5648203,0.4182466,0.4116447,0.07132626
5648206,0.4215088,0.414487,0.07661668
5648208,0.4215088,0.414487,0.07661668
5648211,0.4219727,0.4154301,0.07661668
5648215,0.4187142,0.4121198,0.07401875
5648217,0.4187142,0.4121198,0.07401875
5648220,0.4177785,0.410693,0.07401875
5648222,0.410693,0.4039677,0.07401875
5648225,0.410693,0.4039677,0.07401875
5648227,0.4073442,0.4010509,0.07132626
5648230,0.4073442,0.4010509,0.07132626
5648233,0.4025119,0.3956476,0.07661668
5648235,0.4005627,0.3936644,0.07661668
5648238,0.4005627,0.3936644,0.07661668
5648240,0.3986039,0.3906707,0.07661668
5648243,0.3990945,0.3911712,0.07401875
5648245,0.3990945,0.3911712,0.07401875
5648248,0.4000739,0.393167,0.07661668
5648251,0.4025119,0.3951527,0.07401875
5648253,0.4025119,0.3951527,0.07401875
5648257,0.4000739,0.392669,0.07661668
5648259,0.3961419,0.3881583,0.07401875
5648262,0.3961419,0.3881583,0.07401875
5648264,0.3936644,0.3861367,0.07661668
5648267,0.3936644,0.3861367,0.07661668
5648270,0.3906707,0.3835945,0.07401875
5648272,0.3876539,0.3805216,0.07912937
5648275,0.3876539,0.3805216,0.07912937
5648277,0.3820612,0.3748225,0.07661668
5648280,0.3789758,0.3722032,0.07401875
5648282,0.3789758,0.3722032,0.07401875
5648285,0.3753442,0.3674413,0.07401875
5648288,0.3769049,0.3695653,0.07401875
5648290,0.3769049,0.3695653,0.07401875
5648293,0.3800071,0.3727285,0.07132626
5648295,0.3794918,0.3716771,0.07132626
5648299,0.3794918,0.3716771,0.07132626
5648301,0.3789758,0.3716771,0.07132626
5648304,0.3789758,0.3716771,0.07132626
5648307,0.3800071,0.3727285,0.07401875
5648309,0.3800071,0.3732531,0.07401875
5648312,0.3800071,0.3732531,0.07401875
5648314,0.3805216,0.3727285,0.07401875
5648317,0.3800071,0.3732531,0.06852804
5648319,0.3800071,0.3732531,0.06852804
5648322,0.3805216,0.3732531,0.07401875
5648325,0.3800071,0.3727285,0.07661668
5648327,0.3800071,0.3727285,0.07661668
5648330,0.3779418,0.3706227,0.07132626
5648332,0.3753442,0.3674413,0.07661668
5648335,0.3753442,0.3674413,0.07661668
5648338,0.3748225,0.3679734,0.07661668
5648340,0.3748225,0.3679734,0.07661668
5648344,0.3758652,0.3674413,0.07661668
5648346,0.3763854,0.3679734,0.07912937
5648349,0.3763854,0.3679734,0.07912937
5648351,0.3763854,0.3679734,0.07661668
5648354,0.3658403,0.3571801,0.07401875
5648357,0.3658403,0.3571801,0.07401875
5648359,0.3499859,0.3426407,0.07401875
5648362,0.3477423,0.3403488,0.07132626
5648364,0.3477423,0.3403488,0.07132626
5648367,0.3443497,0.3363003,0.07132626
5648369,0.3409232,0.3333784,0.06852804
5648372,0.3409232,0.3333784,0.06852804
5648375,0.3363003,0.3292442,0.07132626
5648377,0.3363003,0.3292442,0.07132626
5648380,0.3386196,0.3316129,0.0656106
5648382,0.3409232,0.3345502,0.06852804
5648386,0.3409232,0.3345502,0.06852804
5648388,0.3386196,0.3316129,0.0656106
5648391,0.3345502,0.3292442,0.06255726
5648394,0.3345502,0.3292442,0.06255726
5648396,0.3339648,0.3286494,0.05595291
5648399,0.3357179,0.3292442,0.05934703
5648401,0.3357179,0.3292442,0.05934703
5648404,0.3339648,0.3280534,0.06255726
5648406,0.3322025,0.3262592,0.05934703
5648409,0.3304307,0.3250574,0.05934703
5648412,0.3280534,0.3232465,0.05233916
5648414,0.3280534,0.3232465,0.05233916
5648417,0.324455,0.3195939,0.04845664
5648419,0.3232465,0.3195939,0.04845664
5648422,0.3232465,0.3195939,0.04845664
5648424,0.3220336,0.3183671,0.04845664
5648428,0.3280534,0.3238513,0.04423466
5648431,0.3280534,0.3238513,0.04423466
5648433,0.3363003,0.3316129,0.05233916
5648436,0.339197,0.3345502,0.05233916
5648438,0.339197,0.3345502,0.05233916
5648441,0.3345502,0.3304307,0.05595291
5648443,0.3322025,0.3292442,0.05233916
5648446,0.3322025,0.3292442,0.05233916
5648449,0.3322025,0.3286494,0.05233916
5648451,0.3322025,0.3286494,0.05233916
5648454,0.3357179,0.3316129,0.05595291
5648456,0.3397734,0.3351346,0.05934703
5648459,0.3397734,0.3351346,0.05934703
5648461,0.3414966,0.3368816,0.06255726
5648464,0.3483046,0.3432113,0.06255726
5648467,0.3483046,0.3432113,0.06255726
5648470,0.3483046,0.3432113,0.06255726
5648473,0.3483046,0.3432113,0.06255726
5648475,0.3483046,0.3432113,0.06255726
5648478,0.3533245,0.3471792,0.05934703
5648480,0.3555328,0.3516591,0.05934703
5648483,0.3555328,0.3516591,0.05934703
5648486,0.3577275,0.3527702,0.06255726
5648488,0.3577275,0.3527702,0.06255726
5648491,0.3566318,0.3516591,0.06255726
5648493,0.3555328,0.3499859,0.05934703
5648496,0.3555328,0.3499859,0.05934703
5648498,0.3533245,0.3477423,0.06255726
5648501,0.3527702,0.3471792,0.06255726
5648504,0.3527702,0.3471792,0.06255726
5648506,0.358274,0.3527702,0.0656106
5648509,0.360452,0.3544303,0.0656106
5648512,0.360452,0.3544303,0.0656106
5648515,0.3674413,0.3615361,0.06852804
5648517,0.3700944,0.3642322,0.0656106
5648520,0.3700944,0.3642322,0.0656106
5648523,0.3626169,0.3571801,0.05934703
5648525,0.3626169,0.3571801,0.05934703
5648528,0.3593647,0.3533245,0.05934703
5648530,0.3626169,0.3577275,0.05934703
5648533,0.3626169,0.3577275,0.05934703
5648535,0.3679734,0.3626169,0.06255726
5648538,0.3695653,0.3636945,0.0656106
5648541,0.3695653,0.3642322,0.06255726
5648543,0.3706227,0.364769,0.06255726
5648546,0.373777,0.3679734,0.0656106
5648548,0.373777,0.3679734,0.0656106
5648551,0.3748225,0.3690354,0.0656106
5648555,0.3769049,0.3711503,0.06852804
5648557,0.3769049,0.3711503,0.06852804
5648560,0.3774237,0.3716771,0.06852804
5648562,0.3779418,0.3722032,0.0656106
5648565,0.3779418,0.3722032,0.0656106
5648567,0.3779418,0.3722032,0.06852804
5648570,0.3779418,0.3722032,0.06852804
5648573,0.3784592,0.3722032,0.07401875
5648575,0.3789758,0.3716771,0.07401875
5648578,0.3789758,0.3716771,0.07401875
5648580,0.3722032,0.3663747,0.06852804
5648583,0.3642322,0.3571801,0.0656106
5648585,0.3642322,0.3571801,0.0656106
5648588,0.3516591,0.3454843,0.0656106
5648591,0.3466151,0.3409232,0.0656106
5648593,0.3466151,0.3409232,0.0656106
5648596,0.3380413,0.3322025,0.05934703
5648599,0.3333784,0.3268584,0.05934703
5648602,0.3333784,0.3268584,0.05934703
5648604,0.3250574,0.3189811,0.05934703
5648607,0.3250574,0.3189811,0.05934703
5648610,0.3226406,0.315899,0.06255726
5648612,0.3177519,0.311533,0.05595291
5648615,0.3177519,0.311533,0.05595291
5648617,0.3171355,0.3102743,0.05934703
5648620,0.3146578,0.3083766,0.05934703
5648622,0.3146578,0.3083766,0.05934703
5648625,0.3134116,0.3083766,0.05595291
5648628,0.3121605,0.3058279,0.06255726
5648630,0.3121605,0.3058279,0.06255726
5648633,0.3102743,0.3039024,0.06255726
5648635,0.3090104,0.302612,0.06255726
5648638,0.3090104,0.302612,0.06255726
5648641,0.3077414,0.301316,0.06255726
5648644,0.3077414,0.301316,0.06255726
5648647,0.3071049,0.2993615,0.06255726
5648649,0.3058279,0.2987072,0.0656106
5648652,0.3058279,0.2987072,0.0656106
5648654,0.3032579,0.2960753,0.06255726
5648657,0.3006659,0.2927522,0.06255726
5648659,0.3006659,0.2927522,0.06255726
5648662,0.2980514,0.2907402,0.06852804
5648665,0.2973941,0.2900664,0.0656106
5648667,0.2973941,0.2900664,0.0656106
5648670,0.2960753,0.2887141,0.0656106
5648672,0.2954137,0.2873554,0.0656106
5648675,0.2954137,0.2873554,0.0656106
5648677,0.2914124,0.2832403,0.0656106
5648680,0.2914124,0.2832403,0.0656106
5648684,0.2859903,0.2783625,0.0656106
5648686,0.2839303,0.2755364,0.0656106
5648689,0.2839303,0.2755364,0.0656106
5648691,0.2825486,0.2748253,0.06852804
5648694,0.2832403,0.2755364,0.07132626
5648696,0.2832403,0.2755364,0.07132626
5648699,0.2839303,0.2755364,0.0656106
5648702,0.2846186,0.276953,0.06852804
5648704,0.2846186,0.276953,0.06852804
5648707,0.2846186,0.276953,0.06852804
5648709,0.2846186,0.276953,0.06852804
5648712,0.2846186,0.276953,0.06852804
5648714,0.2846186,0.276953,0.06852804
5648717,0.2846186,0.276953,0.06852804
5648720,0.2873554,0.2790645,0.06852804
5648722,0.2873554,0.2790645,0.06852804
5648726,0.2873554,0.2790645,0.06852804
5648728,0.289391,0.2818553,0.06852804
5648731,0.289391,0.2818553,0.06852804
5648733,0.289391,0.2818553,0.06852804
5648736,0.2887141,0.2811602,0.06852804
5648739,0.2900664,0.2825486,0.06852804
5648741,0.2900664,0.2825486,0.06852804
5648744,0.2907402,0.2832403,0.0656106
5648746,0.2947506,0.2873554,0.0656106
5648749,0.2947506,0.2873554,0.0656106
5648752,0.2954137,0.2887141,0.0656106
5648754,0.2954137,0.2887141,0.0656106
5648757,0.301316,0.2947506,0.06852804
5648759,0.3032579,0.2960753,0.0656106
5648762,0.3032579,0.2960753,0.0656106
5648764,0.3032579,0.2973941,0.06255726
5648768,0.3039024,0.2980514,0.06255726
5648771,0.3039024,0.2980514,0.06255726
5648773,0.3045456,0.2980514,0.05934703
5648776,0.3039024,0.2987072,0.05233916
5648778,0.3039024,0.2987072,0.05233916
5648781,0.3134116,0.3090104,0.05595291
5648783,0.3165179,0.3127867,0.05595291
5648786,0.3165179,0.3127867,0.05595291
5648789,0.3238513,0.3189811,0.05233916
5648791,0.3238513,0.3189811,0.05233916
5648794,0.329838,0.3250574,0.05595291
5648796,0.3409232,0.3363003,0.05595291
5648799,0.3409232,0.3363003,0.05595291
5648801,0.3460502,0.3414966,0.05934703
5648804,0.3588198,0.354982,0.06255726
5648807,0.3588198,0.354982,0.06255726
5648809,0.3626169,0.3599087,0.05934703
5648813,0.3722032,0.3700944,0.05934703
5648815,0.3722032,0.3700944,0.05934703
5648818,0.3758652,0.373777,0.05934703
5648820,0.3820612,0.3805216,0.06255726
5648823,0.3820612,0.3805216,0.06255726
5648826,0.3835945,0.3820612,0.05934703
5648828,0.3835945,0.3820612,0.05934703
5648831,0.3876539,0.3861367,0.0656106
5648833,0.3886621,0.3881583,0.0656106
5648836,0.3886621,0.3881583,0.0656106
5648838,0.3896677,0.3891652,0.06255726
5648841,0.3916712,0.3906707,0.0656106
5648844,0.3916712,0.3906707,0.0656106
5648846,0.3951527,0.3936644,0.0656106
5648849,0.3976209,0.3971285,0.06255726
5648851,0.3976209,0.3971285,0.06255726
5648855,0.4015385,0.4000739,0.06852804
5648857,0.4054182,0.4025119,0.07132626
5648860,0.4054182,0.4025119,0.07132626
5648863,0.4073442,0.4049353,0.06852804
5648865,0.4073442,0.4049353,0.06852804
5648868,0.4173099,0.4140146,0.07661668
5648870,0.4215088,0.416371,0.07912937
5648873,0.4215088,0.416371,0.07912937
5648875,0.4224361,0.4168407,0.08156469
5648878,0.4219727,0.4154301,0.08846933
5648881,0.4219727,0.4154301,0.08846933
5648883,0.4210443,0.4135417,0.09278741
5648886,0.4187142,0.4092611,0.09891172
5648888,0.4187142,0.4092611,0.09891172
5648891,0.4177785,0.4068635,0.09891172
5648893,0.416371,0.4049353,0.1046783
5648897,0.416371,0.4049353,0.1046783
5648900,0.4168407,0.4049353,0.1065312
5648902,0.4173099,0.4039677,0.1101434
5648905,0.4173099,0.4039677,0.1101434
5648907,0.4177785,0.403483,0.1119058
5648910,0.4177785,0.403483,0.1119058
5648912,0.4149588,0.4005627,0.1136409
5648915,0.4125943,0.3966355,0.1170339
5648918,0.4125943,0.3966355,0.1170339
5648920,0.4059006,0.3906707,0.1186941
5648923,0.3971285,0.3810355,0.1153499
5648925,0.3971285,0.3810355,0.1153499
5648928,0.3941611,0.3784592,0.1170339
5648930,0.3896677,0.3722032,0.1153499
5648933,0.3896677,0.3722032,0.1153499
5648936,0.3794918,0.3615361,0.1186941
5648939,0.3722032,0.3544303,0.1170339
5648942,0.3722032,0.3544303,0.1170339
5648944,0.358274,0.3409232,0.1153499
5648947,0.358274,0.3409232,0.1153499
5648949,0.3454843,0.3280534,0.1136409
5648952,0.3409232,0.324455,0.1101434
5648955,0.3409232,0.324455,0.1101434
5648957,0.3351346,0.3171355,0.1119058
5648960,0.3262592,0.3077414,0.1136409
5648962,0.3262592,0.3077414,0.1136409
5648965,0.3208161,0.302612,0.1136409
5648968,0.3183671,0.3000144,0.1119058
5648970,0.3183671,0.3000144,0.1119058
5648973,0.3140353,0.2954137,0.1136409
5648975,0.3127867,0.2927522,0.1136409
5648978,0.3127867,0.2927522,0.1136409
5648980,0.3109043,0.2920831,0.1153499
5648984,0.3109043,0.2920831,0.1153499
5648987,0.3109043,0.2920831,0.1136409
5648989,0.3102743,0.2907402,0.1153499
5648992,0.3102743,0.2907402,0.1153499
5648994,0.3090104,0.2907402,0.1119058
5648997,0.309643,0.2907402,0.1119058
5648999,0.309643,0.2907402,0.1119058
5649002,0.3102743,0.2914124,0.1119058
5649005,0.3090104,0.2927522,0.1101434
5649007,0.3090104,0.2927522,0.1101434
5649010,0.3090104,0.2934199,0.1065312
5649012,0.3039024,0.2887141,0.1027921
5649015,0.3039024,0.2887141,0.1027921
5649017,0.3032579,0.2873554,0.1065312
5649020,0.3032579,0.2873554,0.1065312
5649024,0.2947506,0.2783625,0.1027921
5649026,0.2920831,0.2755364,0.09891172
5649029,0.2920831,0.2755364,0.09891172
5649031,0.2832403,0.2676108,0.09691329
5649034,0.2797648,0.2646699,0.09278741
5649036,0.2797648,0.2646699,0.09278741
5649039,0.2719625,0.2579304,0.08846933
5649042,0.2661444,0.254109,0.08392937
5649044,0.2661444,0.254109,0.08392937
5649047,0.2624426,0.25101,0.08392937
5649049,0.2579304,0.2462884,0.07912937
5649052,0.2579304,0.2462884,0.07912937
5649054,0.2533378,0.2422834,0.08156469
5649057,0.2533378,0.2422834,0.08156469
5649060,0.2478722,0.2365626,0.07401875
5649062,0.249446,0.2398483,0.07401875
5649065,0.249446,0.2398483,0.07401875
5649068,0.2525642,0.2438933,0.07132626
5649071,0.2571706,0.2517883,0.0656106
5649073,0.2571706,0.2517883,0.0656106
5649076,0.2586879,0.2525642,0.06255726
5649079,0.2668786,0.2624426,0.06255726
5649081,0.2668786,0.2624426,0.06255726
5649084,0.2690692,0.2654082,0.05934703
5649086,0.2712421,0.2676108,0.05595291
5649089,0.272681,0.2697954,0.05595291
5649091,0.2741124,0.2697954,0.05595291
5649094,0.2741124,0.2697954,0.05595291
5649097,0.2762456,0.2733977,0.05233916
5649099,0.276953,0.2741124,0.04845664
5649102,0.276953,0.2741124,0.04845664
5649104,0.2783625,0.2755364,0.04845664
5649107,0.2797648,0.2762456,0.05233916
5649110,0.2797648,0.2762456,0.05233916
5649113,0.2825486,0.2797648,0.04423466
5649116,0.2846186,0.2818553,0.05233916
5649118,0.2846186,0.2818553,0.05233916
5649121,0.2887141,0.2853053,0.04845664
5649123,0.2920831,0.2887141,0.05595291
5649126,0.2920831,0.2887141,0.05595291
5649128,0.2927522,0.289391,0.05233916
5649131,0.2927522,0.289391,0.05233916
5649134,0.2960753,0.2920831,0.05595291
5649136,0.2967354,0.2927522,0.05595291
5649139,0.2967354,0.2927522,0.05595291
5649141,0.2993615,0.2954137,0.05595291
5649144,0.3000144,0.2954137,0.05595291
5649146,0.3000144,0.2954137,0.05595291
5649149,0.301316,0.2980514,0.05595291
5649153,0.301316,0.2980514,0.05595291
5649155,0.301316,0.2980514,0.05595291
5649158,0.3019647,0.2980514,0.05595291
5649160,0.3019647,0.2980514,0.05595291
5649163,0.3019647,0.2980514,0.05595291
5649166,0.3039024,0.3000144,0.06255726
5649168,0.3039024,0.3000144,0.06255726
5649171,0.3045456,0.3000144,0.05233916
5649173,0.3051875,0.3000144,0.05934703
5649176,0.3051875,0.3000144,0.05934703
5649178,0.3051875,0.2993615,0.06255726
5649181,0.3051875,0.3006659,0.06255726
5649184,0.3051875,0.3006659,0.06255726
5649186,0.3058279,0.301316,0.05934703
5649189,0.3064671,0.3006659,0.05934703
5649191,0.3064671,0.3006659,0.05934703
5649195,0.3071049,0.3019647,0.06255726
5649197,0.3051875,0.3000144,0.05595291
5649200,0.3051875,0.3000144,0.05595291
5649203,0.3039024,0.2987072,0.05934703
5649205,0.3077414,0.302612,0.05934703
5649208,0.3077414,0.302612,0.05934703
5649210,0.309643,0.3051875,0.05595291
5649213,0.309643,0.3051875,0.05595291
5649215,0.3102743,0.3077414,0.05233916
5649218,0.3121605,0.3090104,0.05595291
5649221,0.3121605,0.3090104,0.05595291
5649223,0.315279,0.3127867,0.04423466
5649226,0.3171355,0.3146578,0.03426402
5649228,0.3171355,0.3146578,0.03426402
5649231,0.324455,0.3232465,0.01978234
5649233,0.3280534,0.3268584,0.01978234
5649236,0.3280534,0.3268584,0.01978234
5649240,0.3292442,0.3292442,0.01978234
5649242,0.3304307,0.3292442,0.01978234
5649245,0.3304307,0.3292442,0.01978234
5649247,0.3286494,0.3286494,0
5649250,0.3286494,0.3286494,0
5649252,0.329838,0.3292442,0.01978234
5649255,0.3292442,0.3286494,0
5649258,0.3292442,0.3286494,0
5649260,0.3262592,0.3256589,0
5649263,0.3268584,0.3262592,0
5649265,0.3268584,0.3262592,0
5649268,0.3274564,0.3274564,0.02797646
5649270,0.3316129,0.3316129,0
5649273,0.3316129,0.3316129,0
5649276,0.3386196,0.3374619,0.02797646
5649278,0.3397734,0.3386196,0
5649282,0.3397734,0.3386196,0
5649284,0.3420692,0.3409232,0
5649287,0.3420692,0.3409232,0
5649289,0.3409232,0.3403488,0.02797646
5649292,0.339197,0.3386196,0
5649295,0.339197,0.3386196,0
5649297,0.3380413,0.3380413,0
5649300,0.3368816,0.3368816,0.02797646
5649302,0.3368816,0.3368816,0.02797646
5649305,0.3316129,0.3316129,0
5649307,0.3238513,0.3238513,0
5649310,0.3238513,0.3238513,0
5649313,0.3220336,0.3220336,0
5649315,0.3189811,0.3189811,0.02797646
5649318,0.3189811,0.3189811,0.02797646
5649320,0.3177519,0.3165179,0
5649324,0.3177519,0.3165179,0
5649326,0.3171355,0.3165179,0.02797646
5649329,0.315279,0.315279,0.02797646
5649332,0.315279,0.315279,0.02797646
5649334,0.315279,0.315279,0.02797646
5649337,0.3134116,0.3134116,0
5649339,0.3134116,0.3134116,0
5649342,0.3127867,0.3127867,0.02797646
5649344,0.3064671,0.3058279,0
5649347,0.3064671,0.3058279,0
5649350,0.3006659,0.2987072,0.02797646
5649352,0.3000144,0.3000144,0.02797646
5649355,0.3000144,0.3000144,0.02797646
5649357,0.301316,0.3006659,0.02797646
5649360,0.301316,0.3006659,0.02797646
5649362,0.301316,0.3000144,0
5649366,0.301316,0.301316,0.02797646
5649369,0.301316,0.301316,0.02797646
5649371,0.2987072,0.2987072,0.02797646
5649374,0.2947506,0.2947506,0
5649376,0.2947506,0.2947506,0
5649379,0.2954137,0.2960753,0.02797646
5649382,0.2973941,0.2973941,0.02797646
5649384,0.2973941,0.2973941,0.02797646
5649387,0.2954137,0.2947506,0.02797646
5649389,0.2934199,0.2920831,0.02797646
5649392,0.2934199,0.2920831,0.02797646
5649394,0.2866737,0.2859903,0.02797646
5649397,0.2866737,0.2859903,0.02797646
5649400,0.2790645,0.2797648,0
5649402,0.2741124,0.2741124,0
5649405,0.2741124,0.2741124,0
5649408,0.2705197,0.2712421,0
5649411,0.2712421,0.2697954,0.01978234
5649413,0.2712421,0.2697954,0.01978234
5649416,0.2712421,0.2697954,0.01978234
5649419,0.2719625,0.2705197,0
5649421,0.2719625,0.2705197,0
5649424,0.2719625,0.272681,0
5649426,0.2741124,0.2733977,0
5649429,0.2741124,0.2733977,0
5649431,0.2733977,0.2741124,0
5649434,0.2733977,0.2741124,0
5649437,0.2741124,0.272681,0.02797646
5649439,0.272681,0.2733977,0
5649442,0.272681,0.2733977,0
5649444,0.2719625,0.2719625,0
5649447,0.2697954,0.2690692,0
5649449,0.2668786,0.2668786,0.02797646
5649453,0.2668786,0.2661444,0
5649456,0.2654082,0.2661444,0.02797646
5649458,0.2654082,0.2661444,0.02797646
5649461,0.2661444,0.2646699,0.02797646
5649463,0.268341,0.2668786,0.02797646
5649466,0.268341,0.2668786,0.02797646
5649468,0.2712421,0.2705197,0.02797646
5649471,0.2712421,0.2705197,0.02797646
5649474,0.2719625,0.2719625,0.02797646
5649476,0.2762456,0.2762456,0
5649479,0.2762456,0.2762456,0
5649481,0.2790645,0.2783625,0
5649484,0.2818553,0.2818553,0.02797646
5649486,0.2818553,0.2818553,0.02797646
5649489,0.2818553,0.2818553,0
5649492,0.2839303,0.2839303,0
5649495,0.2839303,0.2839303,0
5649498,0.2880355,0.2873554,0
5649500,0.2934199,0.2920831,0
5649503,0.2934199,0.2920831,0
5649505,0.2934199,0.2934199,0.02797646
5649508,0.2934199,0.2934199,0.02797646
5649511,0.2927522,0.2940859,0
5649513,0.2947506,0.2960753,0
5649516,0.2947506,0.2960753,0
5649518,0.2980514,0.2980514,0
5649521,0.2993615,0.2987072,0
5649523,0.2993615,0.2987072,0
5649526,0.3000144,0.3000144,0
5649529,0.3019647,0.301316,0
5649531,0.3019647,0.301316,0
5649534,0.3039024,0.3032579,0
5649537,0.3071049,0.3071049,0
5649540,0.3071049,0.3071049,0
5649542,0.3102743,0.309643,0
5649545,0.3071049,0.3064671,0
5649548,0.3071049,0.3064671,0
5649550,0.302612,0.3032579,0.01978234
5649553,0.302612,0.3032579,0.01978234
5649555,0.302612,0.3019647,0.01978234
5649558,0.3019647,0.301316,0.02797646
5649560,0.3019647,0.301316,0.02797646
5649563,0.3032579,0.3006659,0.03426402
5649566,0.3032579,0.3006659,0.03426402
5649568,0.3032579,0.3006659,0.03426402
5649571,0.3019647,0.2987072,0.03426402
5649573,0.2987072,0.2967354,0.04423466
5649576,0.2987072,0.2967354,0.04423466
5649580,0.2954137,0.2927522,0.04423466
5649582,0.2887141,0.2866737,0.04423466
5649585,0.2887141,0.2866737,0.04423466
5649587,0.2900664,0.2859903,0.05233916
5649590,0.2900664,0.2859903,0.05233916
5649592,0.2900664,0.2859903,0.05233916
5649595,0.2866737,0.2825486,0.05233916
5649598,0.2866737,0.2825486,0.05233916
5649600,0.2839303,0.2790645,0.05934703
5649603,0.2811602,0.2776587,0.05595291
5649605,0.2811602,0.2776587,0.05595291
5649608,0.272681,0.2668786,0.05595291
5649610,0.2705197,0.2654082,0.06255726
5649613,0.2705197,0.2654082,0.06255726
5649616,0.2697954,0.2646699,0.0656106
5649618,0.2690692,0.2624426,0.0656106
5649622,0.2690692,0.2624426,0.0656106
5649624,0.2705197,0.2646699,0.0656106
5649627,0.2705197,0.2646699,0.0656106
5649629,0.2712421,0.2654082,0.0656106
5649632,0.2755364,0.2690692,0.06852804
5649635,0.2755364,0.2690692,0.06852804
5649637,0.2755364,0.2690692,0.07132626
5649640,0.2755364,0.2690692,0.07132626
5649642,0.2755364,0.268341,0.06852804
5649645,0.2755364,0.2676108,0.06852804
5649647,0.2741124,0.2661444,0.07132626
5649650,0.2741124,0.2661444,0.07132626
5649653,0.2748253,0.2661444,0.07132626
5649655,0.2748253,0.2668786,0.07661668
5649658,0.2748253,0.2668786,0.07661668
5649660,0.2755364,0.2668786,0.07661668
5649664,0.2755364,0.2668786,0.07661668
5649666,0.2811602,0.2712421,0.07661668
5649669,0.2811602,0.2733977,0.07661668
5649672,0.2811602,0.2733977,0.07661668
5649674,0.2832403,0.2755364,0.07401875
5649677,0.2832403,0.2762456,0.07401875
5649679,0.2832403,0.2762456,0.07401875
5649682,0.2887141,0.2804634,0.07132626
5649684,0.2900664,0.2825486,0.06852804
5649687,0.2900664,0.2825486,0.06852804
5649690,0.2973941,0.2927522,0.06255726
5649692,0.3006659,0.2947506,0.0656106
5649695,0.3006659,0.2947506,0.0656106
5649697,0.3064671,0.3006659,0.0656106
5649700,0.3064671,0.3006659,0.0656106
5649702,0.3083766,0.3039024,0.06255726
5649705,0.3077414,0.3051875,0.05595291
5649709,0.3077414,0.3051875,0.05595291
5649711,0.3077414,0.3051875,0.05595291
5649714,0.3102743,0.3077414,0.05233916
5649716,0.3102743,0.3077414,0.05233916
5649719,0.311533,0.3090104,0.05233916
5649721,0.3109043,0.3090104,0.04845664
5649724,0.3109043,0.3090104,0.04845664
5649727,0.3102743,0.3090104,0.04845664
5649729,0.309643,0.3083766,0.04423466
5649732,0.309643,0.3083766,0.04423466
5649734,0.3109043,0.309643,0.04845664
5649737,0.3109043,0.309643,0.04845664
5649739,0.3109043,0.3090104,0.04423466
5649742,0.3109043,0.3083766,0.04423466
5649745,0.3109043,0.3083766,0.04423466
5649747,0.315279,0.3134116,0.04423466
5649751,0.3226406,0.3208161,0.05233916
5649753,0.3226406,0.3208161,0.05233916
5649756,0.3292442,0.3262592,0.05595291
5649758,0.3386196,0.3351346,0.05934703
5649761,0.3386196,0.3351346,0.05934703
5649764,0.3443497,0.3409232,0.05934703
5649766,0.3538778,0.3488659,0.0656106
5649769,0.3538778,0.3488659,0.0656106
5649771,0.354982,0.3494264,0.06852804
5649774,0.354982,0.3494264,0.06852804
5649776,0.3566318,0.3511023,0.07912937
5649779,0.3555328,0.3477423,0.08392937
5649782,0.3555328,0.3477423,0.08392937
5649784,0.3538778,0.3432113,0.09065409
5649787,0.358274,0.3477423,0.09691329
5649789,0.358274,0.3477423,0.09691329
5649793,0.364769,0.3527702,0.09891172
5649796,0.3685048,0.3560827,0.09891172
5649798,0.3685048,0.3560827,0.09891172
5649801,0.3732531,0.360452,0.1027921
5649803,0.3743001,0.3615361,0.1046783
5649806,0.3743001,0.3615361,0.1046783
5649808,0.3748225,0.3609945,0.1065312
5649811,0.3748225,0.3609945,0.1065312
5649814,0.3732531,0.3588198,0.1101434
5649816,0.3711503,0.3555328,0.1119058
5649819,0.3711503,0.3555328,0.1119058
5649821,0.3700944,0.3544303,0.1136409
5649824,0.3544303,0.3380413,0.1101434
5649826,0.3544303,0.3380413,0.1101434
5649829,0.3403488,0.3232465,0.1083524
5649832,0.3333784,0.315899,0.1083524
5649835,0.3333784,0.315899,0.1083524
5649838,0.3195939,0.302612,0.1065312
5649840,0.3134116,0.2954137,0.1046783
5649843,0.3134116,0.2954137,0.1046783
5649845,0.3039024,0.2873554,0.1027921
5649848,0.3039024,0.2873554,0.1027921
5649851,0.301316,0.2853053,0.09891172
5649853,0.2960753,0.2811602,0.09691329
5649856,0.2960753,0.2811602,0.09691329
5649858,0.2927522,0.2783625,0.09278741
5649861,0.2900664,0.2762456,0.09065409
5649863,0.2900664,0.2762456,0.09065409
5649866,0.2804634,0.2676108,0.09065409
5649869,0.276953,0.2646699,0.08622923
5649871,0.276953,0.2646699,0.08622923
5649874,0.2776587,0.2654082,0.08392937
5649876,0.2776587,0.2646699,0.08156469
5649880,0.2776587,0.2646699,0.08156469
5649882,0.2733977,0.261696,0.08392937
5649885,0.2733977,0.2624426,0.07912937
5649888,0.2733977,0.2624426,0.07912937
5649890,0.2741124,0.2631872,0.07661668
5649893,0.2741124,0.2631872,0.07661668
5649895,0.2712421,0.2609472,0.07912937
5649898,0.268341,0.2579304,0.07401875
5649900,0.268341,0.2579304,0.07401875
5649903,0.2639296,0.2533378,0.07401875
5649906,0.2631872,0.2525642,0.07912937
5649908,0.2631872,0.2525642,0.07912937
5649911,0.261696,0.25101,0.07912937
5649913,0.2624426,0.25101,0.08156469
5649916,0.2624426,0.25101,0.08156469
5649918,0.2631872,0.25101,0.07912937
5649922,0.2631872,0.2517883,0.07912937
5649925,0.2631872,0.2517883,0.07912937
5649927,0.2624426,0.2525642,0.07912937
5649930,0.2624426,0.2525642,0.07912937
5649932,0.2639296,0.2533378,0.07401875
5649935,0.2639296,0.254109,0.07912937
5649937,0.2639296,0.254109,0.07912937
5649940,0.2639296,0.2548778,0.07661668
5649943,0.2661444,0.2564087,0.07401875
5649945,0.2661444,0.2564087,0.07401875
5649948,0.2676108,0.2579304,0.07661668
5649950,0.2690692,0.2594432,0.07661668
5649953,0.2690692,0.2594432,0.07661668
5649955,0.2733977,0.2646699,0.07401875
5649958,0.2832403,0.2762456,0.07401875
5649961,0.2832403,0.2762456,0.07401875
5649964,0.2887141,0.2818553,0.07132626
5649967,0.2887141,0.2818553,0.07132626
5649969,0.2980514,0.2907402,0.0656106
5649972,0.3006659,0.2934199,0.06852804
5649974,0.3006659,0.2934199,0.06852804
5649977,0.3051875,0.2987072,0.0656106
5649980,0.3077414,0.3019647,0.0656106
5649982,0.3077414,0.3019647,0.0656106
5649985,0.3127867,0.3058279,0.0656106
5649987,0.3140353,0.3083766,0.06255726
5649990,0.3140353,0.3083766,0.06255726
5649993,0.3165179,0.3109043,0.06255726
5649995,0.3183671,0.3127867,0.05934703
5649998,0.3183671,0.3127867,0.05934703
5650000,0.3214254,0.315899,0.06852804
5650003,0.3214254,0.315899,0.06852804
5650006,0.3220336,0.3171355,0.0656106
5650009,0.324455,0.3195939,0.06255726
5650012,0.324455,0.3195939,0.06255726
5650014,0.3250574,0.3195939,0.06852804
5650017,0.3238513,0.3183671,0.06852804
5650019,0.3238513,0.3183671,0.06852804
5650022,0.324455,0.3195939,0.07132626
5650024,0.3262592,0.3202056,0.06852804
5650027,0.3262592,0.3202056,0.06852804
5650030,0.324455,0.3177519,0.06852804
5650032,0.3232465,0.3171355,0.07132626
5650035,0.3232465,0.3171355,0.07132626
5650037,0.3232465,0.3165179,0.07132626
5650040,0.3232465,0.3165179,0.07132626
5650042,0.3226406,0.315899,0.07401875
5650045,0.3232465,0.315279,0.07401875
5650049,0.3232465,0.315279,0.07401875
5650051,0.3232465,0.315899,0.07661668
5650054,0.3286494,0.3208161,0.08156469
5650056,0.3286494,0.3208161,0.08156469
5650059,0.3333784,0.324455,0.08392937
5650061,0.3351346,0.324455,0.08846933
5650064,0.3351346,0.324455,0.08846933
5650067,0.3357179,0.3250574,0.08622923
5650069,0.3345502,0.324455,0.08846933
5650072,0.3345502,0.324455,0.08846933
5650074,0.3322025,0.3232465,0.08622923
5650077,0.3322025,0.3232465,0.08622923
5650079,0.3363003,0.3262592,0.08846933
5650082,0.3409232,0.3304307,0.09278741
5650085,0.3409232,0.3304307,0.09278741
5650087,0.3414966,0.3304307,0.09278741
5650091,0.3397734,0.3280534,0.09691329
5650093,0.3397734,0.3280534,0.09691329
5650096,0.3420692,0.329838,0.09691329
5650098,0.3454843,0.332791,0.09891172
5650101,0.3454843,0.332791,0.09891172
5650104,0.3460502,0.332791,0.1008706
5650106,0.3420692,0.3286494,0.09891172
5650109,0.3420692,0.3286494,0.09891172
5650111,0.3380413,0.324455,0.09891172
5650114,0.3380413,0.324455,0.09891172
5650116,0.332791,0.3183671,0.1008706
5650119,0.3316129,0.3171355,0.1008706
5650122,0.3316129,0.3171355,0.1008706
5650124,0.3274564,0.3134116,0.1027921
5650127,0.3268584,0.3121605,0.09891172
5650129,0.3268584,0.3121605,0.09891172
5650132,0.3268584,0.311533,0.1027921
5650135,0.3262592,0.3109043,0.1027921
5650138,0.3262592,0.3109043,0.1027921
5650141,0.3208161,0.3058279,0.1027921
5650143,0.3208161,0.3039024,0.1027921
5650146,0.3208161,0.3039024,0.1027921
5650148,0.3140353,0.2973941,0.1027921
5650151,0.3140353,0.2973941,0.1027921
5650153,0.3127867,0.2954137,0.1027921
5650156,0.3071049,0.2907402,0.1046783
5650159,0.3071049,0.2907402,0.1046783
5650161,0.3032579,0.2859903,0.09891172
5650164,0.301316,0.2846186,0.09691329
5650166,0.301316,0.2846186,0.09691329
5650169,0.2987072,0.2832403,0.09891172
5650171,0.2973941,0.2811602,0.1008706
5650174,0.2973941,0.2811602,0.1008706
5650178,0.2967354,0.2797648,0.09891172
5650180,0.2954137,0.2783625,0.09691329
5650183,0.2954137,0.2783625,0.09691329
5650185,0.2934199,0.2762456,0.09891172
5650188,0.2934199,0.2762456,0.09891172
5650190,0.2927522,0.2783625,0.09278741
5650193,0.2927522,0.2776587,0.09278741
5650196,0.2927522,0.2776587,0.09278741
5650198,0.2940859,0.2797648,0.08846933
5650201,0.2934199,0.2797648,0.08846933
5650203,0.2934199,0.2797648,0.08846933
5650206,0.2900664,0.2783625,0.08622923
5650209,0.2887141,0.2776587,0.08392937
5650211,0.2887141,0.2776587,0.08392937
5650214,0.289391,0.2783625,0.08156469
5650216,0.289391,0.2783625,0.07912937
5650220,0.289391,0.2783625,0.07912937
5650222,0.2914124,0.2818553,0.07912937
5650225,0.2920831,0.2825486,0.07661668
5650228,0.2920831,0.2825486,0.07661668
5650230,0.2927522,0.2839303,0.07132626
5650233,0.2927522,0.2839303,0.07132626
5650235,0.2940859,0.2846186,0.07401875
5650238,0.2987072,0.2900664,0.07132626
5650240,0.2987072,0.2900664,0.07132626
5650243,0.2993615,0.2920831,0.06852804
5650246,0.3090104,0.301316,0.07132626
5650248,0.3090104,0.301316,0.07132626
5650251,0.3127867,0.3045456,0.07401875
5650253,0.311533,0.302612,0.07661668
5650256,0.311533,0.302612,0.07661668
5650258,0.3109043,0.3019647,0.07661668
5650262,0.311533,0.3039024,0.07401875
5650265,0.311533,0.3039024,0.07401875
5650267,0.311533,0.3039024,0.07132626
5650270,0.311533,0.3039024,0.07132626
5650272,0.3071049,0.2993615,0.06852804
5650275,0.3058279,0.2987072,0.06852804
5650277,0.3058279,0.2987072,0.06852804
5650280,0.309643,0.302612,0.06852804
5650283,0.3109043,0.3032579,0.06852804
5650285,0.3109043,0.3032579,0.06852804
5650288,0.3220336,0.3146578,0.07132626
5650290,0.3262592,0.3183671,0.07401875
5650293,0.3262592,0.3183671,0.07401875
5650295,0.3304307,0.3220336,0.07912937
5650298,0.3316129,0.3226406,0.07401875
5650301,0.3316129,0.3226406,0.07401875
5650304,0.3374619,0.3292442,0.07401875
5650307,0.3374619,0.3292442,0.07401875
5650309,0.3466151,0.3386196,0.07661668
5650312,0.3466151,0.3386196,0.07661668
5650314,0.3466151,0.3386196,0.07661668
5650317,0.3511023,0.343781,0.07401875
5650320,0.3571801,0.3499859,0.07401875
5650322,0.3571801,0.3499859,0.07401875
5650325,0.3571801,0.3499859,0.07401875
5650327,0.364769,0.3571801,0.07661668
5650330,0.364769,0.3571801,0.07661668
5650332,0.3753442,0.3679734,0.07661668
5650335,0.3810355,0.373777,0.07661668
5650338,0.3810355,0.373777,0.07661668
5650340,0.3846134,0.3779418,0.07912937
5650343,0.3846134,0.3779418,0.07912937
5650345,0.392669,0.3856296,0.07401875
5650349,0.3986039,0.3921704,0.07401875
5650351,0.3986039,0.3921704,0.07401875
5650354,0.4020255,0.3961419,0.07401875
5650357,0.4068635,0.4010509,0.07661668
5650359,0.4068635,0.4010509,0.07661668
5650362,0.409739,0.4039677,0.07661668
5650364,0.414487,0.4087828,0.07401875
5650367,0.414487,0.4087828,0.07401875
5650369,0.414487,0.4092611,0.07132626
5650372,0.4154301,0.409739,0.07401875
5650375,0.4154301,0.409739,0.07401875
5650377,0.4154301,0.409739,0.07401875
5650380,0.4154301,0.409739,0.07401875
5650382,0.4177785,0.4125943,0.06852804
5650385,0.4182466,0.4135417,0.07132626
5650387,0.4182466,0.4135417,0.07132626
5650391,0.4201138,0.4159008,0.06852804
5650394,0.4210443,0.4154301,0.0656106
5650396,0.4210443,0.4154301,0.0656106
5650399,0.4265846,0.4219727,0.07132626
5650401,0.4288719,0.4242849,0.07132626
5650404,0.4288719,0.4242849,0.07132626
5650406,0.4361108,0.4320539,0.06255726
5650409,0.4387946,0.4347627,0.0656106
5650412,0.4387946,0.4347627,0.0656106
5650414,0.4449939,0.4410186,0.06852804
5650417,0.4449939,0.4410186,0.06852804
5650419,0.4467493,0.4427898,0.06255726
5650422,0.454995,0.4511079,0.06255726
5650425,0.454995,0.4511079,0.06255726
5650427,0.4575681,0.4541341,0.06255726
5650430,0.4643598,0.4609765,0.05595291
5650433,0.4643598,0.4609765,0.05595291
5650436,0.466462,0.4635163,0.05595291
5650438,0.4722982,0.4689721,0.05233916
5650441,0.4722982,0.4689721,0.05233916
5650444,0.4739525,0.4714689,0.05595291
5650446,0.4731261,0.4710537,0.04845664
5650449,0.4731261,0.4710537,0.04845664
5650451,0.4727124,0.4706381,0.04423466
5650454,0.4727124,0.4706381,0.04423466
5650456,0.4722982,0.4706381,0.04423466
5650459,0.4718838,0.4702222,0.04845664
5650462,0.4718838,0.4702222,0.04845664
5650464,0.4710537,0.4698059,0.03956468
5650467,0.4702222,0.4689721,0.04845664
5650469,0.4702222,0.4689721,0.04845664
5650472,0.4673002,0.4656223,0.04423466
5650475,0.464781,0.463094,0.03956468
5650478,0.464781,0.463094,0.03956468
5650481,0.4618246,0.4609765,0.03956468
5650483,0.4609765,0.4597013,0.04423466
5650486,0.4609765,0.4597013,0.04423466
5650488,0.4562834,0.4541341,0.04845664
5650491,0.4562834,0.4541341,0.04845664
5650493,0.4545648,0.4532716,0.04845664
5650496,0.450674,0.4502396,0.03956468
5650499,0.450674,0.4502396,0.03956468
5650501,0.4502396,0.4484978,0.04845664
5650504,0.4498048,0.4489339,0.04423466
5650506,0.4498048,0.4489339,0.04423466
5650509,0.4524074,0.4502396,0.04845664
5650511,0.453703,0.4511079,0.05233916
5650514,0.453703,0.4511079,0.05233916
5650518,0.4545648,0.4524074,0.04845664
5650520,0.4562834,0.4545648,0.04845664
5650523,0.4562834,0.4545648,0.04845664
5650525,0.456712,0.454995,0.04845664
5650528,0.4584226,0.4558544,0.04845664
5650530,0.4584226,0.4558544,0.04845664
5650533,0.4592754,0.456712,0.04845664
5650536,0.4592754,0.456712,0.04845664
5650538,0.4597013,0.4571402,0.03956468
5650541,0.4597013,0.4575681,0.04423466
5650543,0.4597013,0.4575681,0.04423466
5650546,0.4579955,0.4554249,0.04845664
5650548,0.4554249,0.4541341,0.03956468
5650551,0.4554249,0.4541341,0.03956468
5650554,0.4515415,0.4502396,0.03426402
5650556,0.4467493,0.4449939,0.02797646
5650560,0.4467493,0.4449939,0.02797646
5650562,0.4463111,0.4463111,0.02797646
5650565,0.4467493,0.4467493,0.01978234
5650567,0.4467493,0.4467493,0.01978234
5650570,0.4476244,0.4480613,0.01978234
5650573,0.4476244,0.4480613,0.01978234
5650575,0.4489339,0.4489339,0
5650578,0.4493696,0.4498048,0
5650580,0.4493696,0.4498048,0
5650583,0.4502396,0.4502396,0
5650585,0.4515415,0.4511079,0
5650588,0.4515415,0.4511079,0
5650591,0.4519747,0.4519747,0
5650593,0.4524074,0.4524074,0
5650596,0.4524074,0.4524074,0
5650598,0.4532716,0.4532716,0
5650601,0.4558544,0.456712,0
5650604,0.4558544,0.456712,0
5650607,0.4605518,0.4609765,0
5650610,0.4605518,0.4609765,0
5650612,0.4635163,0.4639383,0
5650615,0.468137,0.4689721,0
5650617,0.468137,0.4689721,0
5650620,0.4693892,0.4706381,0
5650623,0.4776538,0.4784724,0
5650625,0.4776538,0.4784724,0
5650628,0.4801054,0.4813265,0
5650630,0.4841639,0.4849715,0
5650633,0.4841639,0.4849715,0
5650635,0.4853748,0.4869847,0
5650638,0.4865827,0.4869847,0.02797646
5650641,0.4865827,0.4869847,0.02797646
5650643,0.4865827,0.4873863,0
5650647,0.4865827,0.4873863,0
5650649,0.4877876,0.4881886,0
5650652,0.4881886,0.4885893,0
5650654,0.4881886,0.4885893,0
5650657,0.4893896,0.4897892,0
5650660,0.4901886,0.4897892,0
5650662,0.4901886,0.4897892,0
5650665,0.4913847,0.4917827,0.02797646
5650667,0.4917827,0.4913847,0.02797646
5650670,0.4917827,0.4913847,0.02797646
5650672,0.4933717,0.4937682,0.02797646
5650675,0.4945601,0.4945601,0.02797646
5650678,0.4945601,0.4945601,0.02797646
5650680,0.4965344,0.4957456,0.02797646
5650683,0.4965344,0.4957456,0.02797646
5650685,0.5004597,0.4996771,0.02797646
5650689,0.5020211,0.5020211,0
5650691,0.5020211,0.5020211,0
5650694,0.5055169,0.5051297,0.02797646
5650697,0.5062904,0.5055169,0.02797646
5650699,0.5062904,0.5055169,0.02797646
5650702,0.5070629,0.5059038,0.02797646
5650704,0.5024107,0.5024107,0.02797646
5650707,0.5024107,0.5024107,0.02797646
5650709,0.5000685,0.4996771,0.02797646
5650712,0.4953507,0.4957456,0.02797646
5650715,0.4953507,0.4957456,0.02797646
5650717,0.4893896,0.4889896,0.02797646
5650720,0.4893896,0.4889896,0.02797646
5650722,0.4821389,0.4817329,0.02797646
5650725,0.4714689,0.4710537,0.02797646
5650727,0.4714689,0.4710537,0.02797646
5650731,0.4622481,0.4622481,0
5650734,0.4480613,0.4493696,0.02797646
5650736,0.4480613,0.4493696,0.02797646
5650739,0.4401304,0.4410186,0.01978234
5650741,0.4284154,0.4297835,0.01978234
5650744,0.4284154,0.4297835,0.01978234
5650746,0.4224361,0.4247459,0.01978234
5650749,0.414487,0.4173099,0
5650752,0.414487,0.4173099,0
5650754,0.4092611,0.4125943,0
5650757,0.4092611,0.4125943,0
5650759,0.4020255,0.4063823,0
5650762,0.4000739,0.4039677,0
5650764,0.4000739,0.4039677,0
5650767,0.3986039,0.403483,0
5650770,0.4000739,0.4044518,0
5650772,0.4000739,0.4044518,0
5650776,0.4010509,0.4049353,0
5650778,0.4039677,0.4073442,0
5650781,0.4039677,0.4073442,0
5650783,0.4063823,0.4092611,-0.02797646
5650786,0.4140146,0.4154301,-0.03426402
5650789,0.4140146,0.4154301,-0.03426402
5650791,0.4182466,0.4196478,-0.03426402
5650794,0.4182466,0.4196478,-0.03426402
5650796,0.4284154,0.429328,-0.02797646
5650799,0.4396856,0.4392403,-0.03956468
5650801,0.4396856,0.4392403,-0.03956468
5650804,0.4467493,0.4454334,-0.04423466
5650807,0.4571402,0.4554249,-0.05595291
5650809,0.4571402,0.4554249,-0.05595291
5650812,0.4609765,0.4579955,-0.05233916
5650814,0.4660423,0.463094,-0.05934703
5650818,0.4660423,0.463094,-0.05934703
5650820,0.4656223,0.4614008,-0.05934703
5650823,0.4639383,0.4597013,-0.06852804
5650826,0.4639383,0.4597013,-0.06852804
5650828,0.463094,0.4584226,-0.06852804
5650831,0.463094,0.4584226,-0.06852804
5650833,0.450674,0.4463111,-0.06852804
5650836,0.4467493,0.4419051,-0.06255726
5650839,0.4467493,0.4419051,-0.06255726
5650841,0.4441136,0.4396856,-0.06852804
5650844,0.4436728,0.4387946,-0.07132626
5650846,0.4436728,0.4387946,-0.07132626
5650849,0.4405747,0.4352126,-0.07401875
5650851,0.4334104,0.427501,-0.07401875
5650854,0.4334104,0.427501,-0.07401875
5650857,0.4279585,0.4224361,-0.06852804
5650860,0.4238235,0.4187142,-0.07132626
5650863,0.4238235,0.4187142,-0.07132626
5650865,0.409739,0.4054182,-0.06852804
5650868,0.3976209,0.393167,-0.06852804
5650870,0.3976209,0.393167,-0.06852804
5650873,0.3916712,0.386643,-0.06852804
5650876,0.3916712,0.386643,-0.06852804
5650878,0.3815487,0.3769049,-0.06852804
5650881,0.3789758,0.3732531,-0.07401875
5650883,0.3789758,0.3732531,-0.07401875
5650886,0.3753442,0.3700944,-0.06852804
5650888,0.3711503,0.365305,-0.07401875
5650891,0.3711503,0.365305,-0.07401875
5650894,0.3695653,0.3642322,-0.07401875
5650896,0.3706227,0.3642322,-0.07661668
5650899,0.3706227,0.3642322,-0.07661668
5650902,0.3711503,0.3642322,-0.07912937
5650905,0.3716771,0.365305,-0.08156469
5650907,0.3716771,0.365305,-0.08156469
5650910,0.3716771,0.3658403,-0.07912937
5650913,0.3716771,0.3658403,-0.07912937
5650915,0.3779418,0.3722032,-0.08156469
5650918,0.3800071,0.3753442,-0.07661668
5650920,0.3800071,0.3753442,-0.07661668
5650923,0.3815487,0.3763854,-0.07912937
5650925,0.3794918,0.3748225,-0.07661668
5650928,0.3794918,0.3748225,-0.07661668
5650931,0.3779418,0.3732531,-0.07912937
5650933,0.3774237,0.3732531,-0.07401875
5650936,0.3774237,0.3732531,-0.07401875
5650938,0.3779418,0.373777,-0.07132626
5650941,0.3789758,0.3758652,-0.06852804
5650944,0.3789758,0.3758652,-0.06852804
5650947,0.3774237,0.3748225,-0.06852804
5650950,0.3774237,0.3748225,-0.06852804
5650952,0.3748225,0.3716771,-0.0656106
5650955,0.3732531,0.3700944,-0.06255726
5650957,0.3732531,0.3700944,-0.06255726
5650960,0.3716771,0.3685048,-0.06255726
5650962,0.3711503,0.3685048,-0.05934703
5650965,0.3711503,0.3685048,-0.05934703
5650968,0.3706227,0.3690354,-0.05233916
5650970,0.3695653,0.3685048,-0.04845664
5650973,0.3695653,0.3679734,-0.05595291
5650975,0.3685048,0.3674413,-0.05233916
5650978,0.3695653,0.3685048,-0.04423466
5650980,0.3695653,0.3685048,-0.04423466
5650983,0.3695653,0.3685048,-0.04423466
5650987,0.3695653,0.3685048,-0.04423466
5650989,0.3779418,0.3769049,-0.04845664
5650992,0.3805216,0.3800071,-0.04845664
5650994,0.3805216,0.3800071,-0.04845664
5650997,0.3916712,0.3906707,-0.04845664
5650999,0.3956476,0.393167,-0.04845664
5651002,0.3956476,0.393167,-0.04845664
5651005,0.4020255,0.3990945,-0.05233916
5651007,0.403483,0.4010509,-0.04845664
5651010,0.403483,0.4010509,-0.04845664
5651012,0.4068635,0.4039677,-0.04423466
5651015,0.4068635,0.4044518,-0.04423466
5651017,0.4068635,0.4044518,-0.04423466
5651020,0.4073442,0.4059006,-0.03956468
5651023,0.4073442,0.4059006,-0.03956468
5651025,0.4073442,0.4063823,-0.03426402
5651028,0.4078243,0.4063823,-0.03956468
5651031,0.4078243,0.4063823,-0.03956468
5651034,0.4068635,0.4059006,-0.02797646
5651037,0.4083038,0.4068635,-0.02797646
5651039,0.4083038,0.4068635,-0.02797646
5651042,0.4092611,0.4083038,-0.02797646
5651044,0.4083038,0.4083038,0
5651047,0.4083038,0.4083038,0
5651049,0.4073442,0.4078243,0
5651052,0.4054182,0.4054182,-0.02797646
5651055,0.4054182,0.4054182,-0.02797646
5651057,0.4044518,0.4049353,0
5651060,0.4044518,0.4049353,0
5651062,0.4029978,0.4039677,0
5651065,0.4025119,0.4039677,0
5651067,0.4025119,0.4039677,0
5651070,0.4015385,0.403483,0
5651074,0.4015385,0.4025119,0
5651076,0.4015385,0.4025119,0
5651079,0.4029978,0.4039677,0
5651081,0.4044518,0.4059006,0
5651084,0.4044518,0.4059006,0
5651086,0.4068635,0.4083038,0
5651089,0.4078243,0.4092611,0
5651092,0.4078243,0.4092611,0
5651094,0.4087828,0.409739,0
5651097,0.4087828,0.409739,0
5651099,0.4078243,0.4092611,0
5651102,0.4087828,0.4102162,0
5651104,0.4087828,0.4102162,0
5651107,0.410693,0.4111691,0
5651110,0.4102162,0.4121198,0
5651112,0.4102162,0.4121198,0
5651116,0.4083038,0.4087828,0
5651118,0.4068635,0.4087828,0
5651121,0.4068635,0.4087828,0
5651123,0.4044518,0.4059006,0
5651126,0.4039677,0.4049353,0
5651129,0.4039677,0.4049353,0
5651131,0.4059006,0.4063823,0
5651134,0.4059006,0.4063823,0
5651136,0.4059006,0.4068635,0
5651139,0.3986039,0.4000739,0
5651141,0.3986039,0.4000739,0
5651144,0.3941611,0.3956476,0
5651147,0.393167,0.3941611,0
5651149,0.393167,0.3941611,0
5651152,0.3911712,0.3916712,0
5651154,0.3901695,0.3906707,0
5651158,0.3901695,0.3906707,0
5651160,0.3886621,0.3886621,-0.02797646
5651163,0.373777,0.3753442,0
5651166,0.373777,0.3753442,0
5651168,0.3685048,0.3700944,0
5651171,0.3685048,0.3700944,0
5651173,0.3522151,0.3544303,-0.02797646
5651176,0.3471792,0.3488659,0
5651178,0.3471792,0.3488659,0
5651181,0.3351346,0.3374619,-0.02797646
5651184,0.3310224,0.332791,0
5651186,0.3310224,0.332791,0
5651189,0.3232465,0.3262592,0
5651191,0.3214254,0.3232465,-0.02797646
5651194,0.3214254,0.3232465,-0.02797646
5651196,0.3165179,0.3177519,-0.03956468
5651200,0.3134116,0.315279,-0.03956468
5651203,0.3134116,0.315279,-0.03956468
5651205,0.3090104,0.3109043,-0.03956468
5651208,0.3039024,0.3045456,-0.03956468
5651210,0.3039024,0.3045456,-0.03956468
5651213,0.3006659,0.301316,-0.05233916
5651215,0.3006659,0.301316,-0.05233916
5651218,0.2973941,0.2973941,-0.05233916
5651221,0.2954137,0.2954137,-0.05934703
5651223,0.2954137,0.2954137,-0.05934703
5651226,0.2940859,0.2920831,-0.0656106
5651228,0.2940859,0.2920831,-0.07132626
5651231,0.2940859,0.2920831,-0.07132626
5651233,0.2940859,0.2920831,-0.07132626
5651236,0.2940859,0.2920831,-0.07661668
5651239,0.2940859,0.2920831,-0.07661668
5651241,0.2960753,0.2934199,-0.07401875
5651245,0.2973941,0.2934199,-0.08156469
5651247,0.2973941,0.2934199,-0.08156469
5651250,0.2980514,0.2927522,-0.08156469
5651253,0.2980514,0.2927522,-0.08156469
5651255,0.2993615,0.2947506,-0.08392937
5651258,0.301316,0.2960753,-0.08392937
5651260,0.301316,0.2960753,-0.08392937
5651263,0.3045456,0.2973941,-0.08846933
5651265,0.3051875,0.2980514,-0.08622923
5651268,0.3051875,0.2980514,-0.08622923
5651271,0.3032579,0.2973941,-0.09065409
5651273,0.301316,0.2940859,-0.09278741
5651276,0.301316,0.2940859,-0.09278741
5651278,0.2973941,0.2900664,-0.08846933
5651281,0.2954137,0.2880355,-0.08846933
5651283,0.2954137,0.2880355,-0.08846933
5651287,0.2907402,0.2846186,-0.08392937
5651290,0.2907402,0.2846186,-0.08392937
5651292,0.289391,0.2825486,-0.08392937
5651295,0.289391,0.2825486,-0.08392937
5651297,0.289391,0.2825486,-0.08392937
5651300,0.289391,0.2825486,-0.08392937
5651302,0.2914124,0.2866737,-0.08156469
5651305,0.2914124,0.2866737,-0.08156469
5651308,0.2947506,0.2914124,-0.07132626
5651310,0.2960753,0.2927522,-0.06852804
5651313,0.2960753,0.2927522,-0.06852804
5651315,0.3045456,0.301316,-0.0656106
5651318,0.315899,0.3121605,-0.06255726
5651320,0.315899,0.3121605,-0.06255726
5651323,0.3322025,0.3286494,-0.06255726
5651326,0.3322025,0.3286494,-0.06255726
5651329,0.3426407,0.3386196,-0.06255726
5651332,0.3577275,0.3538778,-0.06255726
5651334,0.3577275,0.3538778,-0.06255726
5651337,0.3722032,0.3685048,-0.06255726
5651339,0.3794918,0.3748225,-0.06255726
5651342,0.3794918,0.3748225,-0.06255726
5651345,0.3851218,0.3810355,-0.06255726
5651347,0.3966355,0.3921704,-0.06255726
5651350,0.3966355,0.3921704,-0.06255726
5651352,0.4005627,0.3966355,-0.05595291
5651355,0.409739,0.4054182,-0.05595291
5651357,0.409739,0.4054182,-0.05595291
5651360,0.4125943,0.4087828,-0.05934703
5651363,0.4125943,0.4087828,-0.05934703
5651365,0.4059006,0.403483,-0.05233916
5651368,0.4039677,0.4015385,-0.04845664
5651371,0.4039677,0.4015385,-0.04845664
5651374,0.4005627,0.3976209,-0.04845664
5651376,0.3990945,0.3966355,-0.04845664
5651379,0.3990945,0.3966355,-0.04845664
5651382,0.3956476,0.3936644,-0.04845664
5651384,0.3946573,0.392669,-0.04845664
5651387,0.3946573,0.392669,-0.04845664
5651389,0.3871488,0.3846134,-0.04423466
5651392,0.3846134,0.3820612,-0.04845664
5651394,0.3846134,0.3820612,-0.04845664
5651397,0.3820612,0.3805216,-0.04423466
5651400,0.3820612,0.3805216,-0.04423466
5651402,0.3810355,0.3794918,-0.04423466
5651405,0.3830841,0.3815487,-0.05233916
5651407,0.3830841,0.3815487,-0.05233916
5651410,0.3846134,0.3815487,-0.05595291
5651412,0.3789758,0.3774237,-0.04845664
5651416,0.3789758,0.3774237,-0.04845664
5651419,0.3769049,0.3758652,-0.03956468
5651421,0.3779418,0.3784592,-0.03956468
5651424,0.3779418,0.3784592,-0.03956468
5651426,0.3810355,0.3800071,-0.03956468
5651429,0.382573,0.3815487,-0.03956468
5651431,0.382573,0.3815487,-0.03956468
5651434,0.3851218,0.3841043,-0.04423466
5651437,0.3851218,0.3841043,-0.04423466
5651439,0.3856296,0.3846134,-0.03956468
5651442,0.386643,0.386643,-0.03956468
5651444,0.386643,0.386643,-0.03956468
5651447,0.3841043,0.3841043,-0.04845664
5651450,0.3810355,0.3800071,-0.03956468
5651452,0.3810355,0.3800071,-0.03956468
5651456,0.3743001,0.373777,-0.03956468
5651458,0.3636945,0.3642322,-0.03426402
5651461,0.3636945,0.3642322,-0.03426402
5651463,0.3626169,0.3636945,-0.02797646
5651466,0.3609945,0.3615361,-0.03426402
5651469,0.3609945,0.3615361,-0.03426402
5651471,0.3609945,0.3615361,-0.03956468
5651474,0.3609945,0.3615361,-0.03956468
5651476,0.3620769,0.3620769,-0.02797646
5651479,0.3577275,0.358274,-0.02797646
5651481,0.3577275,0.358274,-0.02797646
5651484,0.3533245,0.3544303,-0.02797646
5651487,0.3527702,0.3544303,-0.02797646
5651489,0.3527702,0.3544303,-0.02797646
5651492,0.3522151,0.3533245,-0.02797646
5651494,0.3488659,0.3505445,-0.02797646
5651497,0.3488659,0.3505445,-0.02797646
5651500,0.3471792,0.3488659,-0.02797646
5651503,0.3449174,0.3466151,0
5651506,0.3449174,0.3466151,0
5651508,0.343781,0.3471792,-0.02797646
5651511,0.343781,0.3471792,-0.02797646
5651513,0.3420692,0.3454843,0
5651516,0.3414966,0.3449174,0
5651518,0.3414966,0.3449174,0
5651521,0.3374619,0.3420692,-0.02797646
5651524,0.3333784,0.3380413,0
5651526,0.3333784,0.3380413,0
5651529,0.332791,0.3368816,0
5651531,0.3316129,0.3357179,0
5651534,0.3316129,0.3357179,0
5651536,0.3363003,0.3403488,0
5651539,0.3409232,0.3443497,0
5651543,0.3409232,0.3443497,0
5651545,0.3511023,0.3527702,-0.02797646
5651548,0.354982,0.3571801,-0.03956468
5651550,0.354982,0.3571801,-0.03956468
5651553,0.364769,0.3663747,-0.02797646
5651555,0.364769,0.3663747,-0.02797646
5651558,0.3685048,0.3695653,-0.04423466
5651561,0.3769049,0.3774237,-0.03956468
5651563,0.3769049,0.3774237,-0.03956468
5651566,0.3810355,0.3810355,-0.03956468
5651568,0.393167,0.3916712,-0.05233916
5651571,0.393167,0.3916712,-0.05233916
5651573,0.4054182,0.403483,-0.05233916
5651576,0.409739,0.4087828,-0.05233916
5651579,0.409739,0.4087828,-0.05233916
5651581,0.4182466,0.4168407,-0.05595291
5651585,0.4205793,0.4196478,-0.05233916
5651587,0.4247459,0.4228991,-0.05233916
5651590,0.427501,0.4261257,-0.05233916
5651592,0.427501,0.4261257,-0.05233916
5651595,0.4297835,0.4284154,-0.05595291
5651598,0.4361108,0.4347627,-0.05595291
5651600,0.4361108,0.4347627,-0.05595291
5651603,0.4405747,0.4383485,-0.05595291
5651605,0.4414621,0.4401304,-0.05233916
5651608,0.4414621,0.4401304,-0.05233916
5651610,0.4396856,0.4383485,-0.05233916
5651613,0.4361108,0.4352126,-0.05233916
5651616,0.4361108,0.4352126,-0.05233916
5651618,0.4311472,0.429328,-0.05595291
5651621,0.4288719,0.4270431,-0.05233916
5651623,0.4288719,0.4270431,-0.05233916
5651627,0.4252063,0.4233615,-0.05233916
5651629,0.4252063,0.4233615,-0.05233916
5651632,0.4205793,0.4187142,-0.05595291
5651635,0.4078243,0.4063823,-0.04423466
5651637,0.4078243,0.4063823,-0.04423466
5651640,0.4005627,0.3995845,-0.03956468
5651642,0.3901695,0.3891652,-0.03426402
5651645,0.3901695,0.3891652,-0.03426402
5651647,0.382573,0.382573,-0.03426402
5651650,0.3722032,0.3727285,-0.02797646
5651653,0.3722032,0.3727285,-0.02797646
5651655,0.3609945,0.3626169,-0.01978234
5651658,0.3566318,0.3588198,-0.01978234
5651660,0.3566318,0.3588198,-0.01978234
5651663,0.3454843,0.3483046,-0.02797646
5651666,0.3454843,0.3483046,-0.02797646
5651668,0.3414966,0.3443497,0
5651672,0.3351346,0.3380413,0
5651674,0.3351346,0.3380413,0
5651677,0.3322025,0.3357179,0
5651679,0.3292442,0.332791,0
5651682,0.3292442,0.332791,0
5651685,0.3280534,0.3316129,0
5651687,0.3274564,0.3304307,0
5651690,0.3274564,0.3304307,0
5651692,0.3268584,0.329838,0
5651695,0.3262592,0.3292442,0
5651697,0.3262592,0.3292442,0
5651700,0.3262592,0.3292442,0
5651703,0.3262592,0.3292442,0
5651705,0.3286494,0.332791,0
5651708,0.3333784,0.3368816,0
5651710,0.3333784,0.3368816,0
5651714,0.3310224,0.3345502,0
5651716,0.329838,0.3333784,0
5651719,0.329838,0.3333784,0
5651722,0.3292442,0.3333784,0
5651724,0.3292442,0.332791,0
5651727,0.3292442,0.332791,0
5651729,0.324455,0.3274564,0
5651732,0.3226406,0.3256589,0
5651734,0.3226406,0.3256589,0
5651737,0.3195939,0.3232465,0
5651740,0.3195939,0.3232465,0
5651742,0.3177519,0.3220336,0
5651745,0.3189811,0.3226406,0
5651747,0.3189811,0.3226406,0
5651750,0.3220336,0.3250574,0
5651752,0.3250574,0.3268584,0
5651756,0.3250574,0.3268584,0
5651759,0.3292442,0.3316129,0
5651761,0.332791,0.3351346,0
5651764,0.332791,0.3351346,0
5651766,0.3374619,0.339197,0
5651769,0.3409232,0.3414966,0
5651771,0.3409232,0.3414966,0
5651774,0.3443497,0.3460502,0
5651777,0.3443497,0.3460502,0
5651779,0.3483046,0.3488659,0
5651782,0.3527702,0.3538778,-0.02797646
5651784,0.3527702,0.3538778,-0.02797646
5651787,0.3516591,0.3538778,0
5651789,0.3522151,0.3538778,-0.02797646
5651792,0.3522151,0.3538778,-0.02797646
5651795,0.3522151,0.3538778,0
5651798,0.3527702,0.3538778,0
5651801,0.3527702,0.3538778,0
5651803,0.3538778,0.3555328,0
5651806,0.3538778,0.3555328,0
5651808,0.3538778,0.3555328,0
5651811,0.3555328,0.3571801,0
5651814,0.3555328,0.3571801,0
5651816,0.3577275,0.3588198,0
5651819,0.3588198,0.3599087,0
5651821,0.3588198,0.3599087,0
5651824,0.360452,0.3609945,0
5651826,0.3609945,0.3615361,0
5651829,0.3609945,0.3615361,0
5651832,0.3626169,0.3631561,0
5651834,0.3620769,0.3636945,0
5651837,0.3620769,0.3636945,0
5651840,0.3642322,0.364769,0
5651843,0.365305,0.365305,0
5651845,0.365305,0.365305,0
5651848,0.3642322,0.365305,0
5651851,0.3679734,0.3695653,0
5651853,0.3679734,0.3695653,0
5651856,0.3706227,0.3722032,0
5651858,0.3706227,0.3722032,0
5651861,0.373777,0.3748225,0
5651864,0.3748225,0.3758652,0
5651866,0.3748225,0.3758652,0
5651869,0.3753442,0.3758652,0
5651871,0.3753442,0.3758652,0
5651874,0.3753442,0.3758652,0
5651876,0.3748225,0.3753442,0
5651879,0.3743001,0.3748225,0
5651883,0.3743001,0.3748225,0
5651885,0.3743001,0.3743001,-0.02797646
5651888,0.3716771,0.3716771,-0.02797646
5651890,0.3716771,0.3716771,-0.02797646
5651893,0.3700944,0.3706227,-0.02797646
5651895,0.3700944,0.3706227,-0.02797646
5651898,0.3695653,0.3700944,-0.02797646
5651901,0.3695653,0.3706227,-0.02797646
5651903,0.3695653,0.3706227,-0.02797646
5651906,0.3679734,0.3674413,-0.03956468
5651908,0.3663747,0.3663747,-0.03956468
5651911,0.3663747,0.3663747,-0.03956468
5651913,0.3538778,0.3544303,-0.03956468
5651916,0.3488659,0.3499859,-0.02797646
5651919,0.3488659,0.3499859,-0.02797646
5651921,0.3454843,0.3460502,-0.02797646
5651924,0.3432113,0.343781,-0.03956468
5651927,0.3432113,0.343781,-0.03956468
5651930,0.3403488,0.3409232,-0.02797646
5651932,0.3403488,0.3409232,-0.02797646
5651935,0.3357179,0.3374619,-0.02797646
5651938,0.3368816,0.339197,-0.02797646
5651940,0.3368816,0.339197,-0.02797646
5651943,0.3397734,0.3420692,-0.02797646
5651945,0.3420692,0.3443497,-0.02797646
5651948,0.3420692,0.3443497,-0.02797646
5651950,0.3426407,0.3443497,-0.02797646
5651953,0.3522151,0.3538778,-0.02797646
5651956,0.3522151,0.3538778,-0.02797646
5651958,0.3555328,0.3571801,-0.02797646
5651961,0.3626169,0.3631561,-0.03956468
5651963,0.3626169,0.3631561,-0.03956468
5651966,0.364769,0.365305,-0.02797646
5651969,0.364769,0.365305,-0.02797646
5651972,0.3700944,0.3706227,-0.02797646
5651975,0.3743001,0.3763854,-0.02797646
5651977,0.3743001,0.3763854,-0.02797646
5651980,0.3769049,0.3784592,-0.02797646
5651982,0.3810355,0.382573,0
5651985,0.3810355,0.382573,0
5651987,0.382573,0.3841043,0
5651990,0.3851218,0.386643,0
5651993,0.3851218,0.386643,0
5651995,0.3856296,0.3871488,-0.02797646
5651998,0.386643,0.3886621,0
5652000,0.386643,0.3886621,0
5652003,0.386643,0.3886621,0
5652005,0.386643,0.3886621,0
5652008,0.386643,0.3886621,0
5652012,0.3856296,0.3861367,-0.02797646
5652014,0.3856296,0.3861367,-0.02797646
5652017,0.3841043,0.3846134,-0.02797646
5652019,0.3830841,0.3835945,0
5652022,0.3830841,0.3835945,0
5652024,0.3820612,0.382573,0
5652027,0.3815487,0.382573,-0.02797646
5652030,0.3815487,0.382573,-0.02797646
5652032,0.3779418,0.3794918,0
5652035,0.3763854,0.3774237,0
5652037,0.3763854,0.3774237,0
5652040,0.3727285,0.3732531,0
5652042,0.3727285,0.3732531,0
5652045,0.3727285,0.3732531,0
5652048,0.3727285,0.373777,0
5652050,0.3727285,0.373777,0
5652054,0.3727285,0.3727285,0
5652056,0.3626169,0.3631561,-0.02797646
5652059,0.3626169,0.3631561,-0.02797646
5652061,0.3599087,0.3593647,0
5652064,0.3533245,0.3533245,0
5652067,0.3533245,0.3533245,0
5652069,0.3511023,0.3516591,0
5652072,0.3571801,0.3577275,0
5652074,0.3571801,0.3577275,0
5652077,0.3599087,0.360452,0
5652080,0.3599087,0.360452,0
5652082,0.3679734,0.3690354,0
5652085,0.3690354,0.3695653,0
5652087,0.3690354,0.3695653,0
5652090,0.3669084,0.3685048,0
5652092,0.3679734,0.3685048,0
5652096,0.3679734,0.3685048,0
5652099,0.3690354,0.3695653,0
5652101,0.3669084,0.3679734,0
5652104,0.3669084,0.3679734,0
5652106,0.364769,0.3663747,0
5652109,0.3636945,0.365305,0
5652111,0.3636945,0.365305,0
5652114,0.3636945,0.3663747,0
5652117,0.3636945,0.3663747,0
5652119,0.3679734,0.3695653,0
5652122,0.3700944,0.3727285,0
5652124,0.3700944,0.3727285,0
5652127,0.3753442,0.3769049,-0.02797646
5652129,0.3774237,0.3784592,-0.02797646
5652132,0.3774237,0.3784592,-0.02797646
5652135,0.3800071,0.3810355,0
5652137,0.3789758,0.3805216,-0.02797646
5652141,0.3789758,0.3805216,-0.02797646
5652143,0.3779418,0.3789758,-0.02797646
5652146,0.3789758,0.3800071,0
5652148,0.3789758,0.3800071,0
5652151,0.3794918,0.3805216,-0.02797646
5652154,0.3794918,0.3805216,-0.02797646
5652156,0.3774237,0.3784592,0
5652159,0.3763854,0.3779418,0
5652161,0.3763854,0.3779418,0
5652164,0.3758652,0.3769049,0
5652166,0.3753442,0.3769049,-0.02797646
5652169,0.3753442,0.3769049,-0.02797646
5652172,0.3716771,0.3732531,-0.02797646
5652174,0.3706227,0.3711503,0
5652177,0.3706227,0.3711503,0
5652179,0.3695653,0.3706227,0
5652183,0.3690354,0.3700944,-0.02797646
5652185,0.3690354,0.3700944,-0.02797646
5652188,0.3685048,0.3700944,0
5652191,0.3685048,0.3695653,0
5652193,0.3685048,0.3695653,0
5652196,0.3663747,0.3674413,0
5652198,0.3663747,0.3674413,0
5652201,0.365305,0.3669084,0
5652203,0.3642322,0.3658403,0
5652206,0.3642322,0.3658403,0
5652209,0.3636945,0.3658403,0
5652211,0.3642322,0.3658403,0
5652214,0.3642322,0.3658403,0
5652216,0.364769,0.3663747,0
5652219,0.3695653,0.3716771,0
5652221,0.3695653,0.3716771,0
5652225,0.3722032,0.3732531,0
5652228,0.3706227,0.3711503,0
5652230,0.3706227,0.3711503,0
5652233,0.3700944,0.3706227,0
5652235,0.3700944,0.3706227,0
5652238,0.3716771,0.373777,0
5652240,0.3758652,0.3774237,0
5652243,0.3758652,0.3774237,0
5652246,0.3774237,0.3784592,0
5652248,0.3748225,0.3763854,0
5652251,0.3748225,0.3763854,0
5652253,0.3748225,0.3763854,0
5652256,0.3753442,0.3774237,0
5652258,0.3753442,0.3774237,0
5652261,0.3758652,0.3774237,0
5652264,0.3753442,0.3758652,0
5652267,0.3753442,0.3758652,0
5652270,0.3743001,0.3753442,0
5652272,0.3743001,0.3753442,0
5652275,0.3743001,0.3753442,0
5652278,0.3743001,0.3753442,0
5652280,0.3743001,0.3753442,0
5652283,0.3743001,0.3753442,0
5652285,0.3763854,0.3774237,0
5652288,0.3763854,0.3774237,0
5652290,0.3784592,0.3794918,0
5652293,0.3820612,0.3835945,0
5652296,0.3820612,0.3835945,0
5652298,0.3841043,0.3861367,0
5652301,0.3846134,0.3861367,0
5652303,0.3846134,0.3861367,0
5652306,0.3846134,0.3851218,0
5652308,0.3846134,0.3851218,0
5652312,0.3861367,0.3876539,0
5652315,0.3891652,0.3901695,0
5652317,0.3891652,0.3901695,0
5652320,0.3941611,0.3951527,0
5652322,0.3971285,0.3981127,0
5652325,0.3971285,0.3981127,0
5652327,0.4000739,0.4015385,0
5652330,0.4029978,0.4039677,0
5652333,0.4029978,0.4039677,0
5652335,0.4044518,0.4059006,0
5652338,0.4059006,0.4073442,0
5652340,0.4059006,0.4073442,0
5652343,0.4073442,0.4083038,0
5652345,0.4073442,0.4083038,0
5652348,0.4125943,0.4140146,0
5652352,0.414487,0.4159008,0
5652354,0.414487,0.4159008,0
5652357,0.4187142,0.4196478,0
5652359,0.4224361,0.4233615,0
5652362,0.4224361,0.4233615,0
5652364,0.4247459,0.4256662,0
5652367,0.4256662,0.427501,0
5652370,0.4256662,0.427501,0
5652372,0.4320539,0.4334104,0
5652375,0.4352126,0.4361108,0
5652377,0.4352126,0.4361108,0
5652380,0.4356619,0.4365593,0
5652382,0.4356619,0.4365593,0
5652385,0.4356619,0.4370072,0
5652388,0.4316007,0.4325065,0
5652390,0.4316007,0.4325065,0
5652393,0.4302385,0.4311472,0
5652396,0.4242849,0.4252063,0
5652399,0.4242849,0.4252063,0
5652401,0.4191812,0.4205793,0
5652404,0.4168407,0.4182466,0
5652407,0.4168407,0.4182466,0
5652409,0.4130683,0.4140146,0
5652412,0.4116447,0.4125943,0
5652414,0.4116447,0.4125943,0
5652417,0.4092611,0.410693,0
5652419,0.4092611,0.410693,0
5652422,0.4049353,0.4063823,0
5652425,0.3995845,0.4005627,0
5652427,0.3995845,0.4005627,0
5652430,0.3976209,0.4000739,0
5652432,0.3961419,0.3976209,0
5652435,0.3961419,0.3976209,0
5652438,0.3891652,0.392669,0
5652441,0.3876539,0.3906707,0
5652444,0.3876539,0.3906707,0
5652446,0.3901695,0.393167,0
5652449,0.3936644,0.3956476,0
5652451,0.3936644,0.3956476,0
5652454,0.3956476,0.3976209,0
5652456,0.3956476,0.3976209,0
5652459,0.3961419,0.3986039,0
5652462,0.3971285,0.3995845,-0.02797646
5652464,0.3971285,0.3995845,-0.02797646
5652467,0.3976209,0.4000739,0
5652469,0.3966355,0.3990945,0
5652472,0.3966355,0.3990945,0
5652474,0.3941611,0.3971285,0
5652477,0.393167,0.3956476,0
5652481,0.393167,0.3956476,0
5652483,0.3911712,0.3946573,0
5652486,0.393167,0.3966355,0
5652488,0.393167,0.3966355,0
5652491,0.3961419,0.3990945,0
5652494,0.3961419,0.3990945,0
5652496,0.4029978,0.4049353,0
5652499,0.4049353,0.4068635,0
5652501,0.4049353,0.4068635,0
5652504,0.410693,0.4130683,0
5652506,0.4135417,0.4154301,0
5652509,0.4135417,0.4154301,0
5652512,0.4196478,0.4215088,0
5652514,0.4219727,0.4238235,0
5652517,0.4219727,0.4238235,0
5652519,0.4256662,0.4279585,0
5652523,0.427501,0.429328,0
5652525,0.427501,0.429328,0
5652528,0.4316007,0.4325065,0
5652531,0.4338616,0.4347627,0
5652533,0.4338616,0.4347627,0
5652536,0.4343124,0.4352126,0
5652538,0.4343124,0.4352126,0
5652541,0.4347627,0.4361108,0
5652543,0.4352126,0.4352126,0
5652546,0.4352126,0.4352126,0
5652549,0.4347627,0.4347627,0
5652551,0.4311472,0.4320539,0
5652554,0.4311472,0.4320539,0
5652556,0.4270431,0.427501,0
5652559,0.4256662,0.4261257,0
5652561,0.4256662,0.4261257,0
5652564,0.4187142,0.4196478,0
5652568,0.416371,0.4177785,0
5652570,0.416371,0.4177785,0
5652573,0.4092611,0.409739,0
5652575,0.4092611,0.409739,0
5652578,0.4063823,0.4068635,0
5652580,0.3995845,0.4010509,0
5652583,0.3995845,0.4010509,0
5652586,0.3976209,0.3990945,0
5652588,0.3896677,0.3916712,0
5652591,0.3896677,0.3916712,0
5652593,0.3871488,0.3891652,0
5652596,0.3856296,0.386643,0
5652598,0.3856296,0.386643,0
5652601,0.3846134,0.3861367,0
5652604,0.3789758,0.3805216,0
5652606,0.3789758,0.3805216,0
5652610,0.3774237,0.3789758,0
5652612,0.3774237,0.3789758,0
5652615,0.3748225,0.3758652,0
5652617,0.373777,0.3753442,0
5652620,0.373777,0.3753442,0
5652623,0.3711503,0.3716771,0
5652625,0.3695653,0.3706227,0
5652628,0.3695653,0.3706227,0
5652630,0.3685048,0.3690354,0
5652633,0.3679734,0.3690354,0
5652635,0.3679734,0.3690354,0
5652638,0.3669084,0.3674413,0
5652641,0.3663747,0.3669084,0
5652643,0.3663747,0.3669084,0
5652646,0.3560827,0.3560827,0
5652648,0.3560827,0.3560827,0
5652652,0.3522151,0.3522151,0
5652654,0.3516591,0.3522151,-0.02797646
5652657,0.3516591,0.3522151,-0.02797646
5652660,0.3511023,0.3527702,0
5652662,0.3460502,0.3454843,-0.02797646
5652665,0.3460502,0.3454843,-0.02797646
5652667,0.3420692,0.3420692,-0.02797646
5652670,0.3386196,0.3380413,0
5652672,0.3386196,0.3380413,0
5652675,0.3333784,0.3333784,0
5652678,0.3322025,0.3316129,-0.03956468
5652680,0.3322025,0.3316129,-0.03956468
5652683,0.3286494,0.3268584,-0.03956468
5652685,0.3286494,0.3268584,-0.03956468
5652688,0.3268584,0.3256589,-0.03956468
5652691,0.324455,0.3226406,-0.03956468
5652694,0.324455,0.3226406,-0.03956468
5652697,0.329838,0.3280534,-0.03426402
5652699,0.3363003,0.3357179,-0.03426402
5652702,0.3363003,0.3357179,-0.03426402
5652704,0.3403488,0.3397734,-0.03426402
5652707,0.3454843,0.3449174,-0.02797646
5652710,0.3454843,0.3449174,-0.02797646
5652712,0.3454843,0.3454843,-0.02797646
5652715,0.3460502,0.3454843,-0.02797646
5652717,0.3460502,0.3454843,-0.02797646
5652720,0.3454843,0.3449174,-0.02797646
5652722,0.3454843,0.3449174,-0.02797646
5652725,0.3443497,0.3426407,-0.03426402
5652728,0.3477423,0.3471792,-0.03426402
5652730,0.3477423,0.3471792,-0.03426402
5652733,0.3527702,0.3527702,-0.02797646
5652736,0.3577275,0.3571801,-0.02797646
5652739,0.3577275,0.3571801,-0.02797646
5652741,0.364769,0.365305,0
5652744,0.3690354,0.3695653,0
5652747,0.3690354,0.3695653,0
5652749,0.3763854,0.3763854,-0.02797646
5652752,0.3784592,0.3794918,0
5652754,0.3784592,0.3794918,0
5652757,0.3835945,0.3830841,0
5652759,0.3835945,0.3830841,0
5652762,0.3861367,0.3861367,-0.02797646
5652765,0.3896677,0.3901695,0
5652767,0.3896677,0.3901695,0
5652770,0.3911712,0.3916712,0
5652772,0.3941611,0.3941611,0
5652775,0.3941611,0.3941611,0
5652777,0.3946573,0.3951527,0
5652781,0.3946573,0.3951527,-0.02797646
5652784,0.3946573,0.3951527,-0.02797646
5652786,0.3956476,0.3961419,0
5652789,0.3961419,0.3971285,0
5652791,0.3961419,0.3971285,0
5652794,0.3981127,0.3986039,0
5652796,0.3981127,0.3986039,0
5652799,0.3986039,0.3995845,0
5652802,0.3990945,0.3995845,0
5652804,0.3990945,0.3995845,0
5652807,0.3990945,0.3995845,0
5652809,0.3921704,0.393167,-0.02797646
5652812,0.3921704,0.393167,-0.02797646
5652814,0.3861367,0.386643,0
5652817,0.3794918,0.3810355,0
5652820,0.3794918,0.3810355,0
5652823,0.3779418,0.3794918,0
5652826,0.3758652,0.3774237,0
5652828,0.3758652,0.3774237,0
5652831,0.3758652,0.3763854,0
5652833,0.3758652,0.3763854,0
5652836,0.3748225,0.3774237,0
5652839,0.3748225,0.3774237,0
5652841,0.3748225,0.3774237,0
5652844,0.3753442,0.3779418,0
5652846,0.3753442,0.3769049,0
5652849,0.3753442,0.3769049,0
5652851,0.3753442,0.3769049,-0.02797646
5652854,0.3716771,0.3727285,0
5652857,0.3716771,0.3727285,0
5652859,0.3669084,0.3690354,0
5652862,0.3674413,0.3695653,0
5652865,0.3674413,0.3695653,0
5652868,0.3658403,0.3685048,0
5652870,0.365305,0.3679734,0
5652873,0.365305,0.3679734,0
5652876,0.365305,0.3663747,0
5652878,0.365305,0.3663747,0
5652881,0.3636945,0.3663747,0
5652883,0.3620769,0.3631561,0
5652886,0.3620769,0.3631561,0
5652888,0.360452,0.3620769,0
5652891,0.358274,0.3599087,0
5652894,0.358274,0.3599087,0
5652896,0.3577275,0.3593647,-0.02797646
5652899,0.3577275,0.3593647,0
5652901,0.3577275,0.3593647,0
5652904,0.3560827,0.3577275,0
5652908,0.354982,0.3566318,-0.02797646
5652910,0.354982,0.3566318,-0.02797646
5652913,0.354982,0.3560827,0
5652915,0.354982,0.3560827,0
5652918,0.354982,0.3560827,-0.02797646
5652920,0.3522151,0.3538778,0
5652923,0.3522151,0.3538778,0
5652926,0.3488659,0.3505445,0
5652928,0.3409232,0.3420692,0
5652931,0.3409232,0.3420692,0
5652933,0.3357179,0.3363003,0
5652936,0.3339648,0.3345502,0
5652938,0.3339648,0.3345502,0
5652941,0.3322025,0.3333784,0
5652944,0.3310224,0.3310224,0
5652946,0.3310224,0.3310224,0
5652950,0.3292442,0.3292442,0
5652952,0.3292442,0.3292442,0
5652955,0.3238513,0.3202056,0
5652957,0.3165179,0.3171355,0
5652960,0.3165179,0.3171355,0
5652963,0.3165179,0.3171355,0
5652965,0.3165179,0.3171355,0
5652968,0.3165179,0.3171355,0
5652970,0.3232465,0.3226406,0
5652973,0.3268584,0.3280534,0
5652975,0.3268584,0.3280534,0
5652978,0.3351346,0.3357179,0
5652981,0.3380413,0.3397734,0
5652983,0.3380413,0.3397734,0
5652986,0.3386196,0.3403488,0
5652988,0.3386196,0.3403488,0
5652992,0.3374619,0.3380413,0
5652994,0.3426407,0.3432113,0
5652997,0.3426407,0.3432113,0
5653000,0.3449174,0.3454843,0
5653002,0.3499859,0.3516591,0
5653005,0.3499859,0.3516591,0
5653007,0.3533245,0.3544303,0
5653010,0.3593647,0.3599087,0
5653012,0.3593647,0.3599087,0
5653015,0.3620769,0.3631561,0
5653018,0.3674413,0.3679734,0
5653020,0.3674413,0.3679734,0
5653023,0.3700944,0.3706227,0
5653025,0.3700944,0.3706227,0
5653028,0.3727285,0.3748225,0
5653030,0.3758652,0.3769049,0
5653033,0.3758652,0.3769049,0
5653037,0.3774237,0.3794918,0
5653039,0.3805216,0.382573,0
5653042,0.3805216,0.382573,0
5653044,0.382573,0.3835945,-0.02797646
5653047,0.3851218,0.3861367,0
5653049,0.3851218,0.3861367,0
5653052,0.3861367,0.386643,0
5653055,0.3861367,0.3871488,0
5653057,0.3861367,0.3871488,0
5653060,0.386643,0.3871488,-0.02797646
5653062,0.386643,0.3871488,-0.02797646
5653065,0.3794918,0.3800071,0
5653067,0.3769049,0.3779418,-0.02797646
5653070,0.3769049,0.3779418,-0.02797646
5653073,0.3758652,0.3774237,0
5653075,0.3753442,0.3774237,0
5653079,0.3789758,0.3805216,0
5653081,0.3830841,0.3841043,-0.02797646
5653084,0.3876539,0.3891652,-0.02797646
5653086,0.3876539,0.3891652,-0.02797646
5653089,0.3896677,0.3916712,0
5653092,0.3941611,0.3946573,0
5653094,0.3941611,0.3946573,0
5653097,0.3946573,0.3956476,0
5653099,0.3946573,0.3956476,0
5653102,0.3961419,0.3971285,-0.02797646
5653104,0.3971285,0.3981127,0
5653107,0.3971285,0.3981127,0
5653110,0.3976209,0.3981127,0
5653112,0.3981127,0.3990945,-0.02797646
5653115,0.3981127,0.3990945,-0.02797646
5653117,0.3966355,0.3971285,0
5653121,0.3951527,0.3961419,0
5653124,0.3951527,0.3961419,0
5653126,0.392669,0.393167,-0.02797646
5653129,0.393167,0.3936644,0
5653131,0.393167,0.3936644,0
5653134,0.3936644,0.3936644,0
5653136,0.3936644,0.3936644,0
5653139,0.3936644,0.3946573,0
5653142,0.393167,0.3941611,-0.02797646
5653144,0.393167,0.3941611,-0.02797646
5653147,0.3951527,0.3961419,-0.02797646
5653149,0.3966355,0.3976209,0
5653152,0.3966355,0.3976209,0
5653154,0.3986039,0.3990945,0
5653157,0.3990945,0.4000739,0
5653160,0.3990945,0.4000739,0
5653163,0.4020255,0.4025119,0
5653166,0.4029978,0.403483,0
5653168,0.4029978,0.403483,0
5653171,0.4029978,0.4039677,0
5653173,0.4029978,0.4039677,0
5653176,0.4029978,0.4039677,0
5653179,0.4029978,0.403483,0
5653181,0.4029978,0.403483,0
5653184,0.4025119,0.4029978,0
5653186,0.4029978,0.403483,0
5653189,0.4029978,0.403483,0
5653191,0.4029978,0.403483,0
5653194,0.4005627,0.4015385,0
5653197,0.4005627,0.4015385,0
5653199,0.3995845,0.4005627,0
5653202,0.3951527,0.3971285,0
5653204,0.3951527,0.3971285,0
5653208,0.393167,0.3946573,0
5653210,0.3901695,0.3911712,0
5653213,0.3901695,0.3911712,0
5653216,0.3876539,0.3886621,0
5653218,0.3876539,0.3886621,0
5653221,0.3841043,0.3851218,0
5653223,0.3815487,0.3820612,0
5653226,0.3815487,0.3820612,0
5653228,0.3789758,0.3805216,0
5653231,0.3789758,0.3805216,0
5653234,0.3789758,0.3805216,0
5653236,0.3805216,0.3815487,0
5653239,0.3815487,0.3830841,0
5653241,0.3815487,0.3830841,0
5653244,0.3805216,0.3820612,0
5653246,0.3794918,0.3815487,0
5653250,0.3794918,0.3815487,0
5653253,0.382573,0.3841043,0
5653255,0.382573,0.3841043,0
5653258,0.3861367,0.3876539,0
5653260,0.3876539,0.3891652,0
5653263,0.3876539,0.3891652,0
5653265,0.3876539,0.3901695,0
5653268,0.3886621,0.3896677,0
5653271,0.3886621,0.3896677,0
5653273,0.3886621,0.3896677,0
5653276,0.3886621,0.3896677,0
5653278,0.3886621,0.3896677,0
5653281,0.3886621,0.3896677,0
5653283,0.3891652,0.3916712,0
5653286,0.3891652,0.3916712,0
5653289,0.3906707,0.3921704,0
5653292,0.3906707,0.3921704,0
5653295,0.3916712,0.392669,0
5653297,0.3916712,0.392669,0
5653300,0.3916712,0.392669,0
5653302,0.3916712,0.392669,0
5653305,0.3896677,0.3906707,0
5653308,0.3896677,0.3906707,0
5653310,0.3886621,0.3901695,0
5653313,0.3891652,0.3901695,0
5653315,0.3891652,0.3901695,0
5653318,0.3891652,0.3896677,0
5653321,0.3911712,0.392669,0
5653323,0.3911712,0.392669,0
5653326,0.3921704,0.3936644,0
5653328,0.3921704,0.3936644,0
5653331,0.3906707,0.3921704,0
5653334,0.3881583,0.3901695,0
5653337,0.3881583,0.3901695,0
5653340,0.3851218,0.386643,0
5653342,0.3800071,0.3820612,0
5653345,0.3800071,0.3820612,0
5653347,0.3789758,0.3810355,0
5653350,0.3763854,0.3784592,0
5653352,0.3763854,0.3784592,0
5653355,0.3758652,0.3779418,0
5653358,0.3753442,0.3779418,0
5653360,0.3753442,0.3779418,0
5653363,0.3763854,0.3784592,0
5653365,0.3763854,0.3784592,0
5653368,0.3763854,0.3784592,0
5653370,0.3774237,0.3800071,0
5653373,0.3774237,0.3800071,0
5653377,0.3779418,0.3805216,0
5653379,0.3800071,0.382573,0
5653382,0.3800071,0.382573,0
5653384,0.3841043,0.3851218,0
5653387,0.3871488,0.3886621,0
5653389,0.3871488,0.3886621,0
5653392,0.3891652,0.3911712,0
5653395,0.393167,0.3941611,0
5653397,0.393167,0.3941611,0
5653400,0.3951527,0.3961419,0
5653402,0.3951527,0.3961419,0
5653405,0.3995845,0.4000739,0
5653407,0.4029978,0.4039677,0
5653410,0.4029978,0.4039677,0
5653413,0.4116447,0.4125943,0
5653415,0.414487,0.4154301,0
5653419,0.414487,0.4154301,0
5653421,0.4233615,0.4233615,0
5653424,0.4284154,0.4288719,0
5653426,0.4284154,0.4288719,0
5653429,0.4325065,0.4334104,0
5653432,0.4383485,0.4396856,0
5653434,0.4383485,0.4396856,0
5653437,0.4405747,0.4414621,0
5653439,0.4405747,0.4414621,0
5653442,0.4445539,0.4445539,0.02797646
5653444,0.4449939,0.4449939,0
5653447,0.4449939,0.4449939,0
5653450,0.4458725,0.4458725,0
5653452,0.4441136,0.4445539,0
5653455,0.4441136,0.4445539,0
5653457,0.4432315,0.4441136,0
5653460,0.4423477,0.4427898,0.02797646
5653463,0.4423477,0.4427898,0.02797646
5653466,0.4423477,0.4423477,0.02797646
5653469,0.4387946,0.4392403,0
5653471,0.4387946,0.4392403,0
5653474,0.4374548,0.4374548,0.02797646
5653476,0.4374548,0.4374548,0.02797646
5653479,0.4334104,0.4329587,0
5653481,0.4316007,0.4311472,0
5653484,0.4316007,0.4311472,0
5653487,0.4297835,0.4297835,0.02797646
5653489,0.4252063,0.4252063,0.02797646
5653492,0.4252063,0.4252063,0.02797646
5653494,0.4140146,0.414487,0.02797646
5653497,0.4068635,0.4073442,0
5653499,0.4068635,0.4073442,0
5653502,0.3911712,0.3911712,0
5653506,0.3820612,0.382573,0
5653508,0.3820612,0.382573,0
5653511,0.3679734,0.3690354,0
5653513,0.3620769,0.3631561,0
5653516,0.3620769,0.3631561,0
5653518,0.3511023,0.3511023,0
5653521,0.3511023,0.3511023,0
5653524,0.3449174,0.3454843,0
5653526,0.3403488,0.3409232,0
5653529,0.3403488,0.3409232,0
5653531,0.3339648,0.3345502,0
5653534,0.332791,0.332791,0
5653537,0.332791,0.332791,0
5653539,0.3226406,0.3226406,0
5653542,0.3195939,0.3189811,0
5653544,0.3195939,0.3189811,0
5653548,0.3189811,0.3195939,0
5653550,0.3189811,0.3189811,0
5653553,0.3189811,0.3189811,0
5653556,0.3140353,0.315279,0
5653558,0.3140353,0.315279,0
5653561,0.3121605,0.3127867,0
5653563,0.3134116,0.3134116,0
5653566,0.3134116,0.3134116,0
5653568,0.3127867,0.3134116,0
5653571,0.3134116,0.3134116,0
5653574,0.3134116,0.3134116,0
5653576,0.3134116,0.3134116,0
5653579,0.3140353,0.3140353,0
5653581,0.3140353,0.3140353,0
5653584,0.3140353,0.3146578,0
5653586,0.3134116,0.3134116,0
5653590,0.3134116,0.3134116,0
5653593,0.3127867,0.3127867,0
5653595,0.3127867,0.3127867,0
5653598,0.3127867,0.3127867,0
5653600,0.3140353,0.3146578,0
5653603,0.3140353,0.3146578,0
5653605,0.315899,0.3165179,0
5653608,0.3177519,0.3177519,0
5653611,0.3177519,0.3177519,0
5653613,0.3220336,0.3220336,0
5653616,0.3226406,0.3232465,0
5653618,0.3226406,0.3232465,0
5653621,0.3232465,0.324455,0
5653623,0.3256589,0.3250574,0
5653626,0.3256589,0.3250574,0
5653629,0.3238513,0.3238513,0
5653632,0.3238513,0.3238513,0
5653635,0.3238513,0.3238513,0
5653637,0.3256589,0.3250574,0
5653640,0.3256589,0.3250574,0
5653642,0.3262592,0.3256589,0
5653645,0.3274564,0.3268584,0
5653648,0.3274564,0.3268584,0
5653650,0.3280534,0.3280534,0
5653653,0.329838,0.3304307,0
5653655,0.329838,0.3304307,0
5653658,0.3310224,0.3316129,0
5653660,0.3380413,0.3374619,0
5653663,0.3380413,0.3374619,0
5653666,0.3466151,0.3466151,0
5653668,0.3466151,0.3466151,0
5653671,0.3443497,0.343781,0
5653673,0.3426407,0.3420692,0.02797646
5653677,0.3426407,0.3420692,0.02797646
5653679,0.3386196,0.3386196,0
5653682,0.3345502,0.3345502,0
5653685,0.3345502,0.3345502,0
5653687,0.3322025,0.332791,0.02797646
5653690,0.3292442,0.329838,0
5653692,0.3292442,0.329838,0
5653695,0.3268584,0.3268584,0
5653697,0.3238513,0.3232465,0
5653700,0.3238513,0.3232465,0
5653703,0.3208161,0.3202056,0.02797646
5653705,0.3208161,0.3202056,0.02797646
5653708,0.315899,0.315279,0.02797646
5653710,0.3140353,0.3127867,0.02797646
5653713,0.3140353,0.3127867,0.02797646
5653715,0.309643,0.3090104,0.02797646
5653719,0.3051875,0.3051875,0
5653722,0.3051875,0.3051875,0
5653724,0.301316,0.3006659,0.02797646
5653727,0.2980514,0.2973941,0
5653729,0.2980514,0.2973941,0
5653732,0.2960753,0.2954137,0
5653735,0.2920831,0.2920831,0
5653737,0.2920831,0.2920831,0
5653740,0.2914124,0.2900664,0
5653742,0.2914124,0.2900664,0
5653745,0.2839303,0.2825486,0.02797646
5653747,0.2733977,0.272681,0.01978234
5653750,0.2733977,0.272681,0.01978234
5653753,0.2712421,0.2697954,0.02797646
5653755,0.2690692,0.268341,0.02797646
5653758,0.2676108,0.2668786,0.02797646
5653761,0.2631872,0.261696,0.01978234
5653764,0.2586879,0.2579304,0.02797646
5653766,0.2586879,0.2579304,0.02797646
5653769,0.2502292,0.2486604,0.03426402
5653772,0.2414744,0.2390311,0.03426402
5653774,0.2414744,0.2390311,0.03426402
5653777,0.2382111,0.235734,0.02797646
5653779,0.2382111,0.235734,0.02797646
5653782,0.2315465,0.2289973,0.03956468
5653784,0.2281412,0.2238118,0.04423466
5653787,0.2281412,0.2238118,0.04423466
5653790,0.2246844,0.220287,0.03956468
5653792,0.2211734,0.2176059,0.03956468
5653795,0.2211734,0.2176059,0.03956468
5653797,0.2185032,0.2148914,0.04845664
5653800,0.2185032,0.2130625,0.04423466
5653803,0.2185032,0.2130625,0.04423466
5653806,0.2185032,0.2121421,0.05233916
5653809,0.2148914,0.2093567,0.05233916
5653811,0.2148914,0.2093567,0.05233916
5653814,0.2130625,0.2055842,0.05595291
5653816,0.2130625,0.2055842,0.05595291
5653819,0.2130625,0.2036718,0.05934703
5653821,0.2121421,0.2017412,0.0656106
5653824,0.2121421,0.2017412,0.0656106
5653827,0.2112177,0.1988102,0.07132626
5653829,0.2102893,0.1968319,0.07401875
5653832,0.2102893,0.1968319,0.07401875
5653834,0.2093567,0.1978235,0.07401875
5653837,0.2121421,0.199792,0.07401875
5653839,0.2121421,0.199792,0.07401875
5653842,0.2139789,0.2007689,0.07661668
5653846,0.2148914,0.2007689,0.07661668
5653848,0.2148914,0.2007689,0.07661668
5653851,0.2148914,0.2007689,0.07912937
5653853,0.2185032,0.2017412,0.07912937
5653856,0.2185032,0.2017412,0.07912937
5653858,0.2185032,0.2036718,0.08156469
5653861,0.2185032,0.2036718,0.08156469
5653864,0.2193969,0.2046302,0.08156469
5653866,0.2193969,0.2046302,0.07912937
5653869,0.2193969,0.2046302,0.07912937
5653871,0.2211734,0.2074791,0.08156469
5653874,0.2246844,0.2093567,0.08622923
5653876,0.2246844,0.2093567,0.08622923
5653879,0.2264194,0.2112177,0.08392937
5653882,0.2289973,0.2130625,0.08622923
5653884,0.2289973,0.2130625,0.08622923
5653888,0.2272819,0.2121421,0.08392937
5653890,0.2281412,0.2121421,0.08846933
5653893,0.2281412,0.2121421,0.08846933
5653895,0.2281412,0.2139789,0.08156469
5653898,0.2281412,0.2139789,0.08156469
5653901,0.2306999,0.2158,0.08156469
5653903,0.2306999,0.2167048,0.07912937
5653906,0.2306999,0.2167048,0.07912937
5653908,0.2298502,0.2176059,0.07912937
5653911,0.2306999,0.2185032,0.07912937
5653913,0.2306999,0.2185032,0.07912937
5653916,0.2315465,0.2193969,0.07401875
5653919,0.2332305,0.2220564,0.07661668
5653921,0.2332305,0.2220564,0.07661668
5653924,0.2349025,0.2229358,0.06852804
5653926,0.2382111,0.2272819,0.07132626
5653929,0.2382111,0.2272819,0.07132626
5653932,0.2390311,0.2281412,0.06852804
5653935,0.2390311,0.2281412,0.06852804
5653938,0.2406627,0.2298502,0.07132626
5653940,0.2398483,0.2298502,0.07132626
5653943,0.2398483,0.2298502,0.07132626
5653945,0.2398483,0.2298502,0.0656106
5653948,0.2398483,0.2306999,0.06852804
5653951,0.2398483,0.2306999,0.06852804
5653953,0.2406627,0.2315465,0.0656106
5653956,0.2398483,0.23239,0.06255726
5653958,0.2398483,0.23239,0.06255726
5653961,0.2398483,0.23239,0.06255726
5653963,0.2390311,0.2315465,0.05595291
5653966,0.2390311,0.2315465,0.05595291
5653969,0.2365626,0.2298502,0.05595291
5653971,0.2365626,0.2298502,0.05595291
5653975,0.2332305,0.2264194,0.05934703
5653977,0.2373883,0.2298502,0.05595291
5653980,0.2373883,0.2298502,0.05595291
5653982,0.2398483,0.234068,0.05233916
5653985,0.2446942,0.2398483,0.04423466
5653988,0.2446942,0.2398483,0.04423466
5653990,0.2462884,0.2414744,0.04845664
5653993,0.2502292,0.2478722,0.04423466
5653995,0.2502292,0.2478722,0.04423466
5653998,0.2548778,0.25101,0.04423466
5654000,0.2414744,0.2390311,0.03956468
5654003,0.2414744,0.2390311,0.03956468
5654006,0.2281412,0.2255535,0.03956468
5654008,0.2281412,0.2255535,0.03956468
5654011,0.2074791,0.2055842,0.03426402
5654013,0.191797,0.1876719,0.03426402
5654017,0.191797,0.1876719,0.03426402
5654019,0.1557664,0.1519511,0.03426402
5654022,0.1370561,0.1312212,0.03426402
5654025,0.1370561,0.1312212,0.03426402
5654027,0.1046783,0.09891172,0.03426402
5654030,0.08846933,0.08392937,0.02797646
5654032,0.08846933,0.08392937,0.02797646
5654035,0.07661668,0.0656106,0.02797646
5654037,0.07401875,0.0656106,0.02797646
5654040,0.07401875,0.0656106,0.02797646
5654043,0.06852804,0.06255726,0.01978234
5654045,0.06852804,0.06255726,0.01978234
5654048,0.0656106,0.06255726,0.02797646
5654050,0.06255726,0.05595291,0.02797646
5654053,0.06255726,0.05595291,0.02797646
5654055,0.06255726,0.05233916,0.01978234
5654059,0.05934703,0.05595291,0.02797646
5654062,0.05934703,0.05595291,0.02797646
5654064,0.05934703,0.05233916,0.02797646
5654067,0.05595291,0.05233916,0.02797646
5654069,0.05595291,0.05233916,0.02797646
5654072,0.05595291,0.05233916,0.02797646
5654074,0.04845664,0.04423466,0
5654077,0.04845664,0.04423466,0
5654080,0.05595291,0.05233916,0
5654082,0.05595291,0.05233916,0
5654085,0.05595291,0.04845664,0.02797646
5654087,0.05233916,0.05595291,0
5654090,0.05233916,0.05595291,0
5654092,0.05595291,0.05233916,0
5654095,0.05934703,0.05934703,0.02797646
5654098,0.05934703,0.05934703,0.02797646
5654100,0.0656106,0.06255726,0
5654104,0.06852804,0.0656106,0.02797646
5654106,0.06852804,0.0656106,0.02797646
5654109,0.07132626,0.07132626,0.02797646
5654111,0.07132626,0.07132626,0.02797646
5654114,0.07132626,0.07132626,0.02797646
5654117,0.07401875,0.07401875,0.02797646
5654119,0.07401875,0.07401875,0.02797646
5654122,0.07401875,0.07401875,0.02797646
5654124,0.07132626,0.07401875,0.02797646
5654127,0.07132626,0.07401875,0.02797646
5654129,0.07132626,0.07132626,0.02797646
5654132,0.0656106,0.06852804,0.02797646
5654135,0.0656106,0.06852804,0.02797646
5654137,0.05934703,0.06255726,0
5654140,0.05934703,0.05934703,0.02797646
5654142,0.05934703,0.05934703,0.02797646
5654146,0.06255726,0.05595291,0.02797646
5654149,0.05934703,0.05595291,0.02797646
5654151,0.05934703,0.05595291,0.02797646
5654154,0.05934703,0.05934703,0.02797646
5654156,0.06255726,0.05934703,0.02797646
5654159,0.06255726,0.05934703,0.02797646
5654161,0.05595291,0.05934703,0
5654164,0.05595291,0.05934703,0
5654167,0.06255726,0.05934703,0.02797646
5654169,0.06255726,0.05934703,0.02797646
5654172,0.06255726,0.05934703,0.02797646
5654174,0.06255726,0.05595291,0.02797646
5654177,0.05934703,0.05595291,0.02797646
5654179,0.05934703,0.05595291,0.02797646
5654182,0.0656106,0.05934703,0.02797646
5654185,0.06255726,0.05934703,0
5654188,0.06255726,0.05934703,0
5654191,0.05934703,0.06255726,0.02797646
5654193,0.05934703,0.05934703,0.02797646
5654196,0.05934703,0.05934703,0.02797646
5654198,0.07661668,0.07132626,0.01978234
5654201,0.07661668,0.07132626,0.01978234
5654204,0.09278741,0.09278741,0
5654206,0.1027921,0.1008706,0
5654209,0.1027921,0.1008706,0
5654211,0.1219466,0.1219466,0
5654214,0.132704,0.132704,0
5654216,0.132704,0.132704,0
5654219,0.1480375,0.1493534,0
5654222,0.1557664,0.1545051,0
5654224,0.1557664,0.1545051,0
5654227,0.1866263,0.1866263,0
5654230,0.2074791,0.2074791,0
5654233,0.2074791,0.2074791,0
5654235,0.23239,0.23239,0
5654238,0.23239,0.23239,0
5654241,0.2446942,0.2438933,0
5654243,0.2289973,0.2281412,0
5654246,0.2289973,0.2281412,0
5654248,0.2065338,0.2046302,-0.01978234
5654251,0.1978235,0.1968319,-0.01978234
5654253,0.1978235,0.1968319,-0.01978234
5654256,0.1845175,0.183454,0
5654259,0.1876719,0.1876719,0
5654261,0.1876719,0.1876719,0
5654264,0.1938267,0.1938267,0
5654266,0.1968319,0.1968319,0
5654269,0.1968319,0.1968319,0
5654272,0.199792,0.1988102,0
5654275,0.199792,0.1988102,0
5654278,0.2007689,0.199792,0
5654280,0.2017412,0.2007689,0
5654283,0.2017412,0.2007689,0
5654285,0.2017412,0.2007689,0
5654288,0.2036718,0.2046302,0
5654290,0.2036718,0.2046302,0
5654293,0.2036718,0.2046302,0
5654296,0.2093567,0.20842,0
5654298,0.2093567,0.20842,0
5654301,0.2121421,0.2102893,0
5654303,0.2229358,0.2229358,0.02797646
5654306,0.2229358,0.2229358,0.02797646
5654308,0.2281412,0.2272819,0
5654311,0.2281412,0.2272819,0
5654315,0.2298502,0.2289973,0.02797646
5654317,0.23239,0.2315465,0.03956468
5654320,0.23239,0.2315465,0.03956468
5654322,0.234068,0.2298502,0.04845664
5654325,0.2349025,0.2298502,0.05233916
5654327,0.2349025,0.2298502,0.05233916
5654330,0.235734,0.2281412,0.06852804
5654333,0.235734,0.2272819,0.06852804
5654335,0.235734,0.2272819,0.06852804
5654338,0.235734,0.2264194,0.07401875
5654340,0.235734,0.2238118,0.07661668
5654343,0.235734,0.2238118,0.07661668
5654345,0.2315465,0.2158,0.08156469
5654348,0.2315465,0.2158,0.08156469
5654351,0.2306999,0.2130625,0.08846933
5654353,0.2272819,0.2102893,0.09065409
5654356,0.2272819,0.2102893,0.09065409
5654359,0.2255535,0.20842,0.09065409
5654362,0.2246844,0.2055842,0.09278741
5654365,0.2211734,0.2036718,0.08846933
5654367,0.2193969,0.2027088,0.09065409
5654370,0.2158,0.1978235,0.09065409
5654372,0.2158,0.1978235,0.09065409
5654375,0.2121421,0.1938267,0.08622923
5654377,0.2036718,0.1845175,0.09065409
5654380,0.2036718,0.1845175,0.09065409
5654383,0.2007689,0.1813082,0.08846933
5654385,0.2007689,0.1813082,0.08846933
5654388,0.1948336,0.1735894,0.09065409
5654390,0.191797,0.1713202,0.09065409
5654393,0.191797,0.1713202,0.09065409
5654395,0.1897456,0.1678588,0.08846933
5654398,0.1887116,0.165511,0.08846933
5654402,0.1887116,0.165511,0.08846933
5654404,0.1823843,0.1607126,0.08846933
5654407,0.1769387,0.1570175,0.08392937
5654409,0.1769387,0.1570175,0.08392937
5654412,0.1701742,0.1519511,0.08156469
5654414,0.1678588,0.1467098,0.08156469
5654417,0.1678588,0.1467098,0.08156469
5654420,0.1607126,0.1426525,0.07401875
5654422,0.1607126,0.1426525,0.07401875
5654425,0.1557664,0.1370561,0.07661668
5654427,0.1480375,0.1297215,0.07661668
5654430,0.1480375,0.1297215,0.07661668
5654432,0.1412742,0.1235407,0.07132626
5654435,0.1370561,0.1170339,0.07132626
5654438,0.1370561,0.1170339,0.07132626
5654440,0.1312212,0.1119058,0.07132626
5654444,0.1312212,0.1101434,0.07132626
5654446,0.1312212,0.1101434,0.07132626
5654449,0.1282043,0.1083524,0.06852804
5654451,0.1282043,0.1119058,0.06852804
5654454,0.1282043,0.1119058,0.06852804
5654457,0.1266688,0.1101434,0.0656106
5654459,0.1266688,0.1101434,0.0656106
5654462,0.1251145,0.1083524,0.0656106
5654464,0.1219466,0.1083524,0.0656106
5654467,0.1219466,0.1083524,0.0656106
5654469,0.1219466,0.1065312,0.06255726
5654472,0.1219466,0.1065312,0.06255726
5654475,0.1219466,0.1065312,0.06255726
5654477,0.1203313,0.1065312,0.06255726
5654480,0.1186941,0.1027921,0.05934703
5654482,0.1186941,0.1027921,0.05934703
5654486,0.1186941,0.1065312,0.05934703
5654488,0.1203313,0.1065312,0.05934703
5654491,0.1203313,0.1065312,0.05934703
5654494,0.1251145,0.1153499,0.06255726
5654496,0.1282043,0.1170339,0.06255726
5654499,0.1282043,0.1170339,0.06255726
5654501,0.1370561,0.1266688,0.05934703
5654504,0.1370561,0.1266688,0.05934703
5654506,0.1384764,0.1282043,0.05934703
5654509,0.1467098,0.1384764,0.06255726
5654512,0.1467098,0.1384764,0.06255726
5654514,0.1519511,0.1426525,0.05595291
5654517,0.1594904,0.1506579,0.05595291
5654519,0.1594904,0.1506579,0.05595291
5654522,0.1619255,0.1532334,0.05595291
5654524,0.165511,0.1545051,0.06255726
5654528,0.165511,0.1545051,0.06255726
5654531,0.1643245,0.1545051,0.06255726
5654533,0.1643245,0.1545051,0.06255726
5654536,0.1643245,0.1545051,0.06255726
5654538,0.166689,0.1570175,0.06255726
5654541,0.166689,0.1570175,0.06255726
5654543,0.1690205,0.1582588,0.06255726
5654546,0.1735894,0.1619255,0.06255726
5654549,0.1735894,0.1619255,0.06255726
5654551,0.174713,0.1631294,0.05934703
5654554,0.1791368,0.1690205,0.0656106
5654556,0.1791368,0.1690205,0.0656106
5654559,0.1802258,0.1690205,0.06255726
5654562,0.1802258,0.1724585,0.05934703
5654564,0.1802258,0.1724585,0.05934703
5654567,0.1823843,0.1735894,0.05934703
5654569,0.183454,0.174713,0.05934703
5654573,0.183454,0.174713,0.05934703
5654575,0.183454,0.1758294,0.05934703
5654578,0.183454,0.1758294,0.05934703
5654581,0.183454,0.174713,0.05595291
5654583,0.1823843,0.174713,0.05934703
5654586,0.1823843,0.174713,0.05934703
5654588,0.1813082,0.1724585,0.05595291
5654591,0.1791368,0.1724585,0.05595291
5654593,0.1791368,0.1724585,0.05595291
5654596,0.1769387,0.1701742,0.05595291
5654599,0.1791368,0.1690205,0.05934703
5654601,0.1791368,0.1690205,0.05934703
5654604,0.1813082,0.1735894,0.05595291
5654606,0.1813082,0.174713,0.05233916
5654609,0.1813082,0.174713,0.05233916
5654611,0.1823843,0.1758294,0.05934703
5654615,0.1823843,0.1758294,0.05934703
5654618,0.183454,0.1758294,0.05934703
5654620,0.1855749,0.1758294,0.05595291
5654623,0.1855749,0.1758294,0.05595291
5654625,0.1855749,0.1769387,0.05934703
5654628,0.1845175,0.1758294,0.05934703
5654630,0.1845175,0.1758294,0.05934703
5654633,0.183454,0.1758294,0.05934703
5654636,0.183454,0.174713,0.05595291
5654638,0.183454,0.174713,0.05595291
5654641,0.1823843,0.174713,0.06255726
5654643,0.1813082,0.1724585,0.05934703
5654646,0.1813082,0.1724585,0.05934703
5654648,0.1780411,0.1690205,0.05595291
5654651,0.1780411,0.1690205,0.05595291
5654654,0.1758294,0.166689,0.06255726
5654657,0.1735894,0.1643245,0.06255726
5654660,0.1735894,0.1643245,0.06255726
5654662,0.1724585,0.1643245,0.06255726
5654665,0.1735894,0.165511,0.06255726
5654667,0.1735894,0.165511,0.06255726
5654670,0.1713202,0.1631294,0.06255726
5654673,0.1678588,0.1594904,0.05934703
5654675,0.1678588,0.1594904,0.05934703
5654678,0.1690205,0.1594904,0.06255726
5654680,0.1690205,0.1570175,0.06852804
5654683,0.1690205,0.1570175,0.06852804
5654685,0.1678588,0.1557664,0.0656106
5654688,0.1678588,0.1557664,0.0656106
5654691,0.165511,0.1532334,0.06852804
5654693,0.1643245,0.1545051,0.0656106
5654696,0.1643245,0.1545051,0.0656106
5654699,0.1631294,0.1493534,0.06255726
5654702,0.1619255,0.1493534,0.06852804
5654704,0.1619255,0.1493534,0.06852804
5654707,0.1619255,0.1467098,0.06852804
5654710,0.1619255,0.14537,0.06852804
5654712,0.1619255,0.14537,0.06852804
5654715,0.1631294,0.1480375,0.06852804
5654717,0.1631294,0.1480375,0.07132626
5654720,0.1631294,0.1480375,0.07132626
5654722,0.1631294,0.1467098,0.06852804
5654725,0.1631294,0.1467098,0.06852804
5654728,0.1619255,0.14537,0.06852804
5654730,0.1607126,0.1426525,0.07401875
5654733,0.1607126,0.1426525,0.07401875
5654735,0.1582588,0.1398823,0.07661668
5654738,0.1570175,0.1384764,0.07661668
5654740,0.1570175,0.1384764,0.07661668
5654744,0.1519511,0.1341704,0.07401875
5654747,0.1493534,0.1297215,0.07401875
5654749,0.1493534,0.1297215,0.07401875
5654752,0.14537,0.1251145,0.07912937
5654754,0.1412742,0.1235407,0.07401875
5654757,0.1412742,0.1235407,0.07401875
