time,turnedAngle,pitchAngle,yawAngle
 ,0,0,0
448528,0,0,0
448531,0,0,0
448533,0,0,0
448536,0,0,0
4?M&b???b48528,0,0,0
448531,0,0,0
448533,0,0,0
448536,0,0,0
4?M&b???b???b???b?329,0,0,0
448531,0,0,0
448533,0,0,0
448536,0,0,0
4?M&b???b???b???b???bj
448541,0,0,0
448543,0,0,0
448546,0,0,0
448548,0,0,0
448551,0,0,0
448553,0,0,0
448557,0,0,0
448559,0,0,0
448562,0,0,0
448564,0,0,0
448567,0,0,0
448569,0,0,0
448572,0,0,0
448574,0,0,0
448577,0,0,0
448579,0,0,0
448582,0,0,0
448584,0,0,0
448587,0,0,0
448589,0,0,0
448592,0,0,0
448594,0,0,0
448598,0,0,0
448600,0,0,0
448603,0,0,0
448605,0,0,0
448608,0,0,0
448610,0,0,0
448613,0,0,0
448615,0,0,0
448617,0,0,0
448620,0,0,0
448622,0,0,0
448625,0,0,0
448627,0,0,0
448630,0,0,0
448632,0,0,0
448635,0,0,0
448637,0,0,0
448641,0,0,0
448643,0,0,0
448646,0,0,0
448648,0,0,0
448651,0,0,0
448653,0,0,0
448656,0,0,0
448658,0,0,0
448661,0,0,0
448663,0,0,0
448666,0,0,0
448668,0,0,0
448671,0,0,0
448673,0,0,0
448676,0,0,0
448678,0,0,0
448681,0,0,0
448684,0,0,0
448687,0,0,0
448689,0,0,0
448692,0,0,0
448694,0,0,0
448697,0,0,0
448699,0,0,0
448702,0,0,0
448704,0,0,0
448707,0,0,0
448709,0,0,0
448712,0,0,0
448714,0,0,0
448717,0,0,0
448719,0,0,0
448722,0,0,0
448724,0,0,0
448728,0,0,0
448730,0,0,0
448733,0,0,0
448735,0,0,0
448738,0,0,0
448740,0,0,0
448743,0,0,0
448745,0,0,0
448747,0,0,0
448750,0,0,0
448752,0,0,0
448755,0,0,0
448757,0,0,0
448760,0,0,0
448762,0,0,0
448765,0,0,0
448768,0,0,0
448771,0,0,0
448773,0,0,0
448776,0,0,0
448778,0,0,0
448781,0,0,0
448783,0,0,0
448786,0,0,0
448788,0,0,0
448791,0,0,0
448793,0,0,0
448796,0,0,0
448798,0,0,0
448801,0,0,0
448803,0,0,0
448806,0,0,0
448808,0,0,0
448812,0,0,0
448814,0,0,0
448817,0,0,0
448819,0,0,0
448822,0,0,0
448824,0,0,0
448827,0,0,0
448829,0,0,0
448832,0,0,0
448834,0,0,0
448837,0,0,0
448839,0,0,0
448842,0,0,0
448844,0,0,0
448847,0,0,0
448849,0,0,0
448852,0,0,0
448855,0,0,0
448858,0,0,0
448860,0,0,0
448863,0,0,0
448865,0,0,0
448868,0,0,0
448870,0,0,0
448873,0,0,0
448875,0,0,0
448877,0,0,0
448880,0,0,0
448882,0,0,0
448885,0,0,0
448887,0,0,0
448890,0,0,0
448892,0,0,0
448896,0,0,0
448898,0,0,0
448901,0,0,0
448903,0,0,0
448906,0,0,0
448908,0,0,0
448911,0,0,0
448913,0,0,0
448916,0,0,0
448918,0,0,0
448921,0,0,0
448923,0,0,0
448926,0,0,0
448928,0,0,0
448931,0,0,0
448933,0,0,0
448936,0,0,0
448939,0,0,0
448942,0,0,0
448944,0,0,0
448947,0,0,0
448949,0,0,0
448952,0,0,0
448954,0,0,0
448957,0,0,0
448959,0,0,0
448962,0,0,0
448964,0,0,0
448967,0,0,0
448969,0,0,0
448972,0,0,0
448974,0,0,0
448977,0,0,0
448979,0,0,0
448983,0,0,0
448985,0,0,0
448988,0,0,0
448990,0,0,0
448993,0,0,0
448995,0,0,0
448998,0,0,0
449000,0,0,0
449003,0,0,0
449005,0,0,0
449007,0,0,0
449010,0,0,0
449012,0,0,0
449015,0,0,0
449017,0,0,0
449020,0,0,0
449022,0,0,0
449026,0,0,0
449028,0,0,0
449031,0,0,0
449033,0,0,0
449036,0,0,0
449038,0,0,0
449041,0,0,0
449043,0,0,0
449046,0,0,0
449048,0,0,0
449051,0,0,0
449053,0,0,0
449056,0,0,0
449058,0,0,0
449061,0,0,0
449063,0,0,0
449067,0,0,0
449069,0,0,0
449072,0,0,0
449074,0,0,0
449077,0,0,0
449079,0,0,0
449082,0,0,0
449084,0,0,0
449087,0,0,0
449089,0,0,0
449092,0,0,0
449094,0,0,0
449097,0,0,0
449099,0,0,0
449102,0,0,0
449104,0,0,0
449107,0,0,0
449110,0,0,0
449113,0,0,0
449115,0,0,0
449118,0,0,0
449120,0,0,0
449123,0,0,0
449125,0,0,0
449128,0,0,0
449130,0,0,0
449133,0,0,0
449135,0,0,0
449137,0,0,0
449140,0,0,0
449142,0,0,0
449145,0,0,0
449147,0,0,0
449150,0,0,0
449153,0,0,0
449156,0,0,0
449158,0,0,0
449161,0,0,0
449163,0,0,0
449166,0,0,0
449168,0,0,0
449171,0,0,0
449173,0,0,0
449176,0,0,0
449178,0,0,0
449181,0,0,0
449183,0,0,0
449186,0,0,0
449188,0,0,0
449191,0,0,0
449193,0,0,0
449197,0,0,0
449199,0,0,0
449202,0,0,0
449204,0,0,0
449207,0,0,0
449209,0,0,0
449212,0,0,0
449214,0,0,0
449217,0,0,0
449219,0,0,0
449222,0,0,0
449224,0,0,0
449227,0,0,0
449229,0,0,0
449232,0,0,0
449234,0,0,0
449238,0,0,0
449240,0,0,0
449243,0,0,0
449245,0,0,0
449248,0,0,0
449250,0,0,0
449253,0,0,0
449255,0,0,0
449258,0,0,0
449260,0,0,0
449263,0,0,0
449265,0,0,0
449267,0,0,0
449270,0,0,0
449272,0,0,0
449275,0,0,0
449277,0,0,0
449281,0,0,0
449283,0,0,0
449286,0,0,0
449288,0,0,0
449291,0,0,0
449293,0,0,0
449296,0,0,0
449298,0,0,0
449301,0,0,0
449303,0,0,0
449306,0,0,0
449308,0,0,0
449311,0,0,0
449313,0,0,0
449316,0,0,0
449318,0,0,0
449321,0,0,0
449324,0,0,0
449327,0,0,0
449329,0,0,0
449332,0,0,0
449334,0,0,0
449337,0,0,0
449339,0,0,0
449342,0,0,0
449344,0,0,0
449347,0,0,0
449349,0,0,0
449352,0,0,0
449354,0,0,0
449357,0,0,0
449359,0,0,0
449362,0,0,0
449364,0,0,0
449368,0,0,0
449370,0,0,0
449373,0,0,0
449375,0,0,0
449378,0,0,0
449380,0,0,0
449383,0,0,0
449385,0,0,0
449388,0,0,0
449390,0,0,0
449393,0,0,0
449395,0,0,0
449397,0,0,0
449400,0,0,0
449402,0,0,0
449405,0,0,0
449408,0,0,0
449411,0,0,0
449413,0,0,0
449416,0,0,0
449418,0,0,0
449421,0,0,0
449423,0,0,0
449426,0,0,0
449428,0,0,0
449431,0,0,0
449433,0,0,0
449436,0,0,0
449438,0,0,0
449441,0,0,0
449443,0,0,0
449446,0,0,0
449448,0,0,0
449452,0,0,0
449454,0,0,0
449457,0,0,0
449459,0,0,0
449462,0,0,0
449464,0,0,0
449467,0,0,0
449469,0,0,0
449472,0,0,0
449474,0,0,0
449477,0,0,0
449479,0,0,0
449482,0,0,0
449484,0,0,0
449487,0,0,0
449489,0,0,0
449492,0,0,0
449495,0,0,0
449498,0,0,0
449500,0,0,0
449503,0,0,0
449505,0,0,0
449508,0,0,0
449510,0,0,0
449513,0,0,0
449515,0,0,0
449518,0,0,0
449520,0,0,0
449523,0,0,0
449525,0,0,0
449527,0,0,0
449530,0,0,0
449532,0,0,0
449536,0,0,0
449538,0,0,0
449541,0,0,0
449543,0,0,0
449546,0,0,0
449548,0,0,0
449551,0,0,0
449553,0,0,0
449556,0,0,0
449558,0,0,0
449561,0,0,0
449563,0,0,0
449566,0,0,0
449568,0,0,0
449571,0,0,0
449573,0,0,0
449576,0,0,0
449579,0,0,0
449582,0,0,0
449584,0,0,0
449587,0,0,0
449589,0,0,0
449592,0,0,0
449594,0,0,0
449597,0,0,0
449599,0,0,0
449602,0,0,0
449604,0,0,0
449607,0,0,0
449609,0,0,0
449612,0,0,0
449614,0,0,0
449617,0,0,0
449619,0,0,0
449623,0,0,0
449625,0,0,0
449628,0,0,0
449630,0,0,0
449633,0,0,0
449635,0,0,0
449638,0,0,0
449640,0,0,0
449643,0,0,0
449645,0,0,0
449648,0,0,0
449650,0,0,0
449653,0,0,0
449655,0,0,0
449657,0,0,0
449660,0,0,0
449662,0,0,0
449666,0,0,0
449668,0,0,0
449671,0,0,0
449673,0,0,0
449676,0,0,0
449678,0,0,0
449681,0,0,0
449683,0,0,0
449686,0,0,0
449688,0,0,0
449691,0,0,0
449693,0,0,0
449696,0,0,0
449698,0,0,0
449701,0,0,0
449703,0,0,0
449707,0,0,0
449709,0,0,0
449712,0,0,0
449714,0,0,0
449717,0,0,0
449719,0,0,0
449722,0,0,0
449724,0,0,0
449727,0,0,0
449729,0,0,0
449732,0,0,0
449734,0,0,0
449737,0,0,0
449739,0,0,0
449742,0,0,0
449744,0,0,0
449747,0,0,0
449750,0,0,0
449753,0,0,0
449755,0,0,0
449758,0,0,0
449760,0,0,0
449763,0,0,0
449765,0,0,0
449768,0,0,0
449770,0,0,0
449773,0,0,0
449775,0,0,0
449778,0,0,0
449780,0,0,0
449783,0,0,0
449785,0,0,0
449788,0,0,0
449790,0,0,0
449793,0,0,0
449796,0,0,0
449798,0,0,0
449801,0,0,0
449803,0,0,0
449806,0,0,0
449808,0,0,0
449811,0,0,0
449813,0,0,0
449816,0,0,0
449818,0,0,0
449821,0,0,0
449823,0,0,0
449826,0,0,0
449828,0,0,0
449831,0,0,0
449833,0,0,0
449837,0,0,0
449839,0,0,0
449842,0,0,0
449844,0,0,0
449847,0,0,0
449849,0,0,0
449852,0,0,0
449854,0,0,0
449857,0,0,0
449859,0,0,0
449862,0,0,0
449864,0,0,0
449867,0,0,0
449869,0,0,0
449872,0,0,0
449874,0,0,0
449878,0,0,0
449880,0,0,0
449883,0,0,0
449885,0,0,0
449888,0,0,0
449890,0,0,0
449893,0,0,0
449895,0,0,0
449898,0,0,0
449900,0,0,0
449903,0,0,0
449905,0,0,0
449908,0,0,0
449910,0,0,0
449913,0,0,0
449915,0,0,0
449918,0,0,0
449921,0,0,0
449923,0,0,0
449926,0,0,0
449928,0,0,0
449931,0.1119058,0.1101434,0.01978234
449933,0.2007689,0.2007689,0
449936,0.2007689,0.2007689,0
449938,0.3304307,0.329838,0
449941,0.3769049,0.3763854,0
449943,0.3769049,0.3763854,0
449946,0.4432315,0.4432315,0
449948,0.4432315,0.4432315,0
449951,0.4652019,0.464781,0
449953,0.4825446,0.4821389,0
449956,0.4825446,0.4821389,0
449958,0.5082192,0.5078341,0
449961,0.5082192,0.5078341,0
449964,0.5169988,0.5166202,0
449967,0.5256317,0.5252593,0
449969,0.5256317,0.5252593,0
449972,0.5374122,0.5374122,0.01978234
449974,0.5414024,0.5414024,0
449977,0.5414024,0.5414024,0
449979,0.5446455,0.5446455,0
449982,0.5471546,0.5471546,0
449984,0.5492961,0.5489398,0
449987,0.5503638,0.5503638,0
449989,0.5503638,0.5503638,0
449992,0.5539077,0.5542608,0
449994,0.5560232,0.5560232,0
449997,0.5560232,0.5560232,0
449999,0.55778,0.55778,0
450002,0.55778,0.55778,0
450004,0.5588315,0.5588315,0
450008,0.5595313,0.5595313,0
450010,0.5595313,0.5595313,0
450013,0.5598809,0.5602303,0
450015,0.5612772,0.5616257,0
450018,0.5612772,0.5616257,0
450020,0.563365,0.5637122,0
450023,0.563365,0.5637122,0
450025,0.5630175,0.5630175,0
450028,0.5626699,0.5623221,0
450030,0.5626699,0.5623221,0
450033,0.5623221,0.5623221,0
450035,0.5623221,0.5623221,0
450038,0.5623221,0.5623221,0
450040,0.563365,0.5640592,0
450043,0.563365,0.5640592,0
450045,0.564406,0.5647526,0
450049,0.5650989,0.564406,0
450051,0.5650989,0.564406,0
450053,0.5640592,0.5640592,0
450056,0.5637122,0.5640592,0
450058,0.5637122,0.5640592,0
450061,0.5626699,0.5626699,0
450063,0.5626699,0.5626699,0
450066,0.5609285,0.5605795,0
450068,0.5591815,0.5591815,0
450071,0.5591815,0.5591815,0
450073,0.5567266,0.5570779,0
450076,0.5556712,0.5560232,0
450078,0.5556712,0.5560232,0
450081,0.5546138,0.5546138,0
450083,0.5546138,0.5546138,0
450086,0.5546138,0.5546138,0
450088,0.5546138,0.5542608,0
450092,0.5546138,0.5542608,0
450094,0.5546138,0.5546138,0
450097,0.5546138,0.5546138,0
450099,0.5542608,0.5542608,0
450102,0.5542608,0.5542608,0
450104,0.5542608,0.5542608,0
450107,0.5542608,0.5542608,0
450109,0.5517841,0.5517841,0
450112,0.5517841,0.5517841,0
450114,0.5489398,0.5492961,0
450117,0.5489398,0.5492961,0
450119,0.5482264,0.5485832,0
450122,0.5478694,0.5475121,0
450124,0.5467969,0.5471546,0
450127,0.5464389,0.5464389,0
450129,0.5453635,0.5457222,0
450132,0.5453635,0.5457222,0
450135,0.5435666,0.5432066,0
450138,0.5435666,0.5432066,0
450140,0.5428462,0.5421248,0
450143,0.5410409,0.5410409,0
450145,0.5410409,0.5410409,0
450148,0.5395923,0.5395923,0
450150,0.5388666,0.5388666,0
450153,0.5388666,0.5388666,0
450155,0.5385033,0.5388666,0
450158,0.5385033,0.5388666,0
450160,0.5392296,0.5388666,0
450163,0.5388666,0.5392296,0
450165,0.5388666,0.5392296,0
450168,0.5399548,0.5399548,0
450170,0.5406791,0.5410409,0
450173,0.5406791,0.5410409,0
450176,0.5410409,0.5410409,0
450179,0.5410409,0.5410409,0
450181,0.5410409,0.5414024,0
450183,0.5421248,0.5417637,0
450186,0.5421248,0.5417637,0
450188,0.5421248,0.5421248,0
450191,0.5435666,0.5432066,0
450193,0.5435666,0.5432066,0
450196,0.5446455,0.5446455,0
450198,0.5446455,0.5446455,0
450201,0.5460806,0.5457222,0
450203,0.5467969,0.5475121,0
450206,0.5478694,0.5475121,0
450208,0.5482264,0.5482264,0
450211,0.5489398,0.5489398,0
450213,0.5489398,0.5489398,0
450216,0.5514293,0.5514293,0
450219,0.5514293,0.5514293,0
450222,0.5532007,0.5532007,0
450224,0.5528469,0.5524929,0
450227,0.5528469,0.5524929,0
450229,0.5524929,0.5521386,0
450232,0.5524929,0.5521386,0
450234,0.5528469,0.5521386,0
450237,0.5528469,0.5528469,0
450239,0.5528469,0.5528469,0
450242,0.5521386,0.5521386,0
450244,0.5514293,0.5514293,0
450247,0.5514293,0.5514293,0
450249,0.5517841,0.5510744,0
450252,0.5517841,0.5510744,0
450254,0.5514293,0.5510744,0
450257,0.5517841,0.5521386,0
450259,0.5517841,0.5521386,0
450263,0.5521386,0.5521386,0
450265,0.5532007,0.5532007,0
450268,0.5532007,0.5532007,0
450270,0.5532007,0.5535544,0
450273,0.5532007,0.5535544,0
450275,0.5546138,0.5546138,0
450278,0.5556712,0.555319,0
450280,0.5556712,0.555319,0
450283,0.5556712,0.555319,0
450285,0.5556712,0.5549665,0
450288,0.5556712,0.5549665,0
450290,0.5549665,0.555319,0
450293,0.5549665,0.555319,0
450295,0.555319,0.5549665,0
450298,0.5549665,0.5549665,0
450300,0.5549665,0.5549665,0
450304,0.555319,0.5549665,0
450306,0.5549665,0.5542608,0
450309,0.5549665,0.5542608,0
450311,0.5546138,0.5539077,0
450313,0.5546138,0.5539077,0
450316,0.5539077,0.5539077,0
450318,0.5556712,0.555319,0
450321,0.5556712,0.555319,0
450323,0.556375,0.5560232,0
450326,0.5556712,0.5556712,0
450328,0.5556712,0.5556712,0
450331,0.555319,0.5549665,0
450333,0.555319,0.5549665,0
450336,0.555319,0.555319,0
450338,0.5546138,0.5549665,0
450341,0.5546138,0.5549665,0
450343,0.5542608,0.5542608,0
450347,0.5546138,0.5549665,0
450349,0.5546138,0.5549665,0
450352,0.5542608,0.5539077,0
450354,0.5542608,0.5539077,0
450357,0.5542608,0.5546138,0
450359,0.5546138,0.5542608,0
450362,0.5546138,0.5542608,0
450364,0.5546138,0.5546138,0
450367,0.5546138,0.5546138,0
450369,0.555319,0.5556712,0
450372,0.5560232,0.5556712,0
450374,0.5560232,0.5556712,0
450377,0.556375,0.5567266,0
450379,0.5581307,0.55778,0
450382,0.5581307,0.55778,0
450384,0.55778,0.5574291,0
450387,0.55778,0.5574291,0
450390,0.5560232,0.5556712,0
450393,0.555319,0.5549665,0
450395,0.555319,0.5549665,0
450398,0.5546138,0.5542608,0
450400,0.5514293,0.5510744,0
450403,0.5514293,0.5510744,0
450405,0.5500081,0.5496522,0
450408,0.5500081,0.5496522,0
450410,0.5492961,0.5489398,0
450413,0.5489398,0.5489398,0
450415,0.5489398,0.5489398,0
450418,0.5478694,0.5471546,0
450420,0.5467969,0.5467969,0
450423,0.5467969,0.5467969,0
450425,0.5435666,0.5439265,0
450428,0.5435666,0.5439265,0
450430,0.5424856,0.5428462,0
450434,0.5439265,0.5439265,0
450436,0.5439265,0.5439265,0
450439,0.5450047,0.5453635,0
450441,0.5450047,0.5446455,0
450443,0.5450047,0.5446455,0
450446,0.5446455,0.5446455,0
450448,0.5446455,0.5446455,0
450451,0.5450047,0.5453635,0
450453,0.5453635,0.5453635,0
450456,0.5453635,0.5453635,0
450458,0.5453635,0.5457222,0
450461,0.5457222,0.5460806,0
450463,0.5457222,0.5460806,0
450466,0.5464389,0.5460806,0
450468,0.5464389,0.5460806,0
450471,0.5467969,0.5467969,0
450473,0.5485832,0.5482264,0
450477,0.5485832,0.5482264,0
450479,0.5496522,0.5492961,0
450482,0.5496522,0.5492961,0
450484,0.5496522,0.5492961,0
450487,0.5492961,0.5492961,0
450489,0.5492961,0.5492961,0
450492,0.5507192,0.5507192,0
450494,0.5521386,0.5517841,0
450497,0.5521386,0.5517841,0
450499,0.5539077,0.5535544,0
450502,0.5542608,0.5542608,0
450504,0.5542608,0.5542608,0
450507,0.5546138,0.5542608,0
450509,0.5546138,0.5542608,0
450512,0.5542608,0.5546138,0
450514,0.5546138,0.5546138,0
450518,0.5546138,0.5546138,0
450520,0.5549665,0.5549665,0.02797646
450523,0.5549665,0.5549665,0.02797646
450525,0.555319,0.5549665,0
450528,0.5546138,0.5539077,0
450530,0.5546138,0.5539077,0
450533,0.5535544,0.5528469,0.02797646
450535,0.5524929,0.5521386,0
450538,0.5517841,0.5510744,0
450540,0.5514293,0.5514293,0
450543,0.5514293,0.5514293,0
450545,0.5510744,0.5507192,0
450548,0.5507192,0.5507192,0
450550,0.5507192,0.5507192,0
450553,0.5510744,0.5503638,0
450555,0.5517841,0.5510744,0
450558,0.5517841,0.5510744,0
450561,0.5524929,0.5524929,0
450564,0.5524929,0.5524929,0
450566,0.5539077,0.5535544,0
450569,0.5542608,0.5542608,0
450571,0.5542608,0.5542608,0
450573,0.555319,0.555319,0
450576,0.555319,0.5549665,0
450578,0.555319,0.5549665,0
450581,0.555319,0.555319,0
450583,0.555319,0.555319,0
450586,0.5570779,0.5570779,0
450588,0.5574291,0.5574291,0
450591,0.5574291,0.5574291,0
450593,0.5567266,0.5570779,0
450596,0.556375,0.5567266,0
450598,0.556375,0.5567266,0
450601,0.556375,0.556375,0
450604,0.556375,0.556375,0
450607,0.5560232,0.556375,0
450609,0.55778,0.5581307,0
450612,0.55778,0.5581307,0
450614,0.5591815,0.5588315,0
450617,0.5588315,0.5595313,0
450619,0.5588315,0.5595313,0
450622,0.5595313,0.5602303,0
450624,0.5595313,0.5602303,0
450627,0.5612772,0.5616257,0
450629,0.5626699,0.5630175,0
450632,0.5626699,0.5630175,0
450634,0.5640592,0.564406,0
450637,0.5647526,0.5647526,0
450639,0.5647526,0.5647526,0
450642,0.5654452,0.5654452,0
450644,0.5654452,0.5654452,0
450648,0.5664824,0.5668277,0
450650,0.5664824,0.5671728,0
450653,0.5664824,0.5671728,0
450655,0.5671728,0.5675176,0
450658,0.5671728,0.5675176,0
450660,0.5678623,0.5678623,0
450663,0.5682068,0.5678623,0
450665,0.5682068,0.5678623,0
450668,0.5675176,0.5675176,0
450670,0.5661368,0.5664824,0
450673,0.5661368,0.5664824,0
450675,0.5661368,0.5668277,0
450678,0.5661368,0.5668277,0
450680,0.5668277,0.5668277,0
450683,0.5664824,0.5671728,0
450685,0.5664824,0.5671728,0
450689,0.5668277,0.5671728,0
450691,0.5661368,0.5664824,0
450694,0.5661368,0.5664824,0
450696,0.5654452,0.5657911,0
450699,0.5654452,0.5657911,0
450701,0.5640592,0.5647526,0
450703,0.5637122,0.5640592,0
450706,0.5637122,0.5640592,0
450708,0.563365,0.5637122,0
450711,0.5619739,0.5619739,0.02797646
450713,0.5619739,0.5619739,0.02797646
450716,0.5623221,0.5626699,0
450718,0.5623221,0.5626699,0
450721,0.5623221,0.5626699,0
450723,0.5630175,0.5637122,0
450726,0.5630175,0.5637122,0
450728,0.5640592,0.5640592,0
450732,0.5654452,0.5654452,0
450734,0.5654452,0.5654452,0
450737,0.5650989,0.5654452,0
450739,0.5650989,0.5654452,0
450742,0.5654452,0.5661368,0
450744,0.5654452,0.5661368,0
450747,0.5657911,0.5664824,0.02797646
450749,0.5661368,0.5661368,0
450752,0.5661368,0.5664824,0
450754,0.5661368,0.5664824,0
450757,0.5675176,0.5678623,0
450759,0.5688952,0.569239,0
450762,0.5699261,0.5706123,0
450764,0.5716401,0.5723243,0
450767,0.5716401,0.5723243,0
450769,0.5747126,0.5753932,0
450772,0.5747126,0.575053,0
450775,0.5747126,0.575053,0
450778,0.575053,0.5757331,0
450780,0.575053,0.5757331,0
450783,0.5757331,0.5764125,0
450785,0.5764125,0.577091,0
450788,0.5764125,0.577091,0
450790,0.57743,0.5784457,0
450793,0.57743,0.5784457,0
450795,0.5784457,0.5791218,0
450798,0.5787839,0.5797972,0
450800,0.5787839,0.5797972,0
450803,0.5804718,0.5814822,0
450805,0.5828267,0.5834977,0
450808,0.5828267,0.5834977,0
450810,0.5834977,0.583833,0.02797646
450813,0.5834977,0.583833,0.02797646
450816,0.583833,0.5845029,0
450819,0.583833,0.5845029,0
450821,0.583833,0.5845029,0
450824,0.583833,0.5848376,0
450826,0.5841681,0.5848376,0
450829,0.5841681,0.5848376,0
450831,0.5841681,0.5851721,0
450833,0.5841681,0.5851721,0
450836,0.5868416,0.5878411,0
450838,0.5875081,0.5885065,0.02797646
450841,0.5875081,0.5885065,0.02797646
450843,0.5878411,0.5878411,0
450846,0.5868416,0.587175,0
450848,0.5868416,0.587175,0
450851,0.5865081,0.5868416,0
450853,0.5865081,0.5868416,0
450856,0.5861744,0.5865081,0.02797646
450859,0.5881739,0.5888388,0
450862,0.5881739,0.5888388,0
450864,0.5891711,0.589503,0
450867,0.5885065,0.589503,0
450869,0.5885065,0.589503,0
450872,0.5881739,0.5891711,0
450874,0.5881739,0.5891711,0
450877,0.5881739,0.5885065,0
450879,0.5881739,0.5885065,0
450882,0.5881739,0.5885065,0
450884,0.5881739,0.5881739,0
450887,0.5875081,0.5881739,0
450889,0.5875081,0.5881739,0
450892,0.5865081,0.587175,0
450894,0.5865081,0.587175,0
450897,0.5858405,0.5861744,0
450899,0.5834977,0.5841681,0
450903,0.5834977,0.5841681,0
450905,0.5831623,0.583833,0
450908,0.5821548,0.5831623,0
450910,0.5821548,0.5831623,0
450913,0.5814822,0.5818186,0.01978234
450915,0.5814822,0.5818186,0.01978234
450918,0.5814822,0.5821548,0
450920,0.5818186,0.5828267,0
450923,0.5818186,0.5828267,0
450925,0.5834977,0.5841681,0
450928,0.5834977,0.5841681,0
450930,0.5845029,0.5848376,0
450933,0.5868416,0.5868416,0.02797646
450935,0.5868416,0.5868416,0.02797646
450938,0.5875081,0.5878411,0
450940,0.589503,0.5898349,0
450944,0.589503,0.5898349,0
450946,0.5924829,0.5931431,0
450949,0.5924829,0.5931431,0
450951,0.5941319,0.5951191,0
450954,0.5954478,0.5961047,0.02797646
450956,0.5954478,0.5961047,0.02797646
450959,0.5964329,0.5967609,0
450961,0.5957764,0.5967609,0
450963,0.5957764,0.5967609,0
450966,0.5954478,0.5957764,0
450968,0.5954478,0.5957764,0
450971,0.5941319,0.5947903,0
450973,0.5941319,0.5947903,0
450976,0.5941319,0.5947903,0
450978,0.5944612,0.5951191,0
450981,0.5934729,0.5941319,0
450983,0.5934729,0.5941319,0
450987,0.5934729,0.5938025,0
450989,0.5934729,0.5938025,0
450992,0.591822,0.5924829,0
450994,0.590498,0.5908293,0
450997,0.590498,0.5908293,0
450999,0.5898349,0.5898349,0
451002,0.5891711,0.589503,0
451004,0.5891711,0.589503,0
451007,0.5881739,0.5885065,0
451009,0.5881739,0.5885065,0
451012,0.5881739,0.5885065,0
451014,0.5865081,0.5868416,0
451017,0.5865081,0.5868416,0
451019,0.5855064,0.5855064,0
451022,0.5834977,0.583833,0
451024,0.5834977,0.583833,0
451027,0.5814822,0.5814822,0
451030,0.5814822,0.5814822,0
451033,0.5808088,0.5811456,0
451035,0.5801346,0.5808088,0
451038,0.5801346,0.5808088,0
451040,0.5801346,0.5804718,0
451043,0.5811456,0.5818186,0
451045,0.5811456,0.5818186,0
451048,0.5804718,0.5808088,0
451050,0.5804718,0.5808088,0
451053,0.5797972,0.5801346,0
451055,0.5784457,0.5784457,0
451058,0.5784457,0.5784457,0
451060,0.5760729,0.5767518,0
451063,0.5760729,0.5767518,0
451065,0.5736903,0.5740312,0
451068,0.5719823,0.5723243,0
451070,0.5719823,0.5723243,0
451074,0.5688952,0.569239,0
451076,0.5678623,0.5682068,0
451079,0.5678623,0.5682068,0
451081,0.5664824,0.5675176,0
451084,0.5664824,0.5675176,0
451086,0.5682068,0.5688952,0
451089,0.5699261,0.5702693,0.02797646
451091,0.5699261,0.5702693,0.02797646
451094,0.5706123,0.5706123,0.02797646
451096,0.5709552,0.5709552,0.02797646
451098,0.5709552,0.5709552,0.02797646
451101,0.5695826,0.5706123,0
451103,0.5695826,0.5706123,0
451106,0.569239,0.5702693,0
451108,0.5716401,0.5719823,0
451111,0.5716401,0.5719823,0
451113,0.5730078,0.5730078,0
451117,0.5733491,0.5736903,0
451119,0.5733491,0.5736903,0
451122,0.5733491,0.5736903,0
451124,0.5733491,0.5736903,0
451127,0.5730078,0.5733491,0.02797646
451129,0.5723243,0.5726661,0
451132,0.5723243,0.5726661,0
451134,0.5716401,0.5719823,0
451137,0.5716401,0.5716401,0
451139,0.5716401,0.5716401,0
451142,0.5726661,0.5726661,0
451144,0.5726661,0.5726661,0
451147,0.5733491,0.5736903,0
451149,0.5743721,0.5753932,0
451152,0.5743721,0.5753932,0
451154,0.575053,0.5757331,0
451158,0.5764125,0.577091,0
451160,0.5764125,0.577091,0
451163,0.5767518,0.57743,0
451165,0.5767518,0.57743,0
451168,0.577091,0.577091,0
451170,0.577091,0.5777687,0
451173,0.577091,0.5777687,0
451175,0.5784457,0.5787839,0
451178,0.5787839,0.5794597,0
451180,0.5787839,0.5794597,0
451183,0.5804718,0.5804718,0
451185,0.5804718,0.5804718,0
451188,0.5811456,0.5811456,0
451190,0.5824909,0.5824909,0
451193,0.5824909,0.5824909,0
451195,0.5841681,0.5841681,0
451198,0.5841681,0.5841681,0
451201,0.5841681,0.5848376,0
451204,0.5841681,0.5845029,0
451206,0.5841681,0.5845029,0
451209,0.5845029,0.5848376,0
451211,0.5848376,0.5851721,0
451214,0.5848376,0.5851721,0
451216,0.5841681,0.5845029,0
451219,0.5841681,0.5845029,0
451221,0.5834977,0.583833,0
451224,0.5828267,0.5831623,0
451226,0.5828267,0.5831623,0
451228,0.5828267,0.5834977,0
451231,0.583833,0.583833,0
451233,0.583833,0.583833,0
451236,0.5845029,0.5845029,0
451238,0.5845029,0.5845029,0
451241,0.583833,0.5841681,0
451244,0.5834977,0.5841681,0
451247,0.5834977,0.5841681,0
451249,0.5845029,0.5845029,0
451252,0.583833,0.5848376,0
451254,0.583833,0.5848376,0
451257,0.5848376,0.5855064,0
451259,0.5848376,0.5855064,0
451262,0.5851721,0.5858405,0
451264,0.5848376,0.5848376,0
451267,0.5848376,0.5848376,0
451269,0.5841681,0.5841681,0
451272,0.5834977,0.583833,0
451274,0.5834977,0.583833,0
451277,0.5845029,0.5855064,0
451279,0.5845029,0.5855064,0
451282,0.5855064,0.5851721,0
451284,0.5855064,0.5855064,0
451288,0.5855064,0.5855064,0
451290,0.5855064,0.5851721,0
451293,0.5845029,0.5845029,0.02797646
451295,0.5845029,0.5845029,0.02797646
451298,0.5828267,0.5834977,0
451300,0.5828267,0.5834977,0
451303,0.5821548,0.5821548,0
451305,0.5801346,0.5808088,0
451308,0.5801346,0.5808088,0
451310,0.5801346,0.5808088,0
451313,0.5804718,0.5808088,0
451315,0.5804718,0.5808088,0
451318,0.5808088,0.5804718,0
451320,0.5808088,0.5804718,0
451323,0.5808088,0.5808088,0
451325,0.5814822,0.5814822,0
451329,0.5814822,0.5814822,0
451331,0.5824909,0.5828267,0
451334,0.5824909,0.5828267,0
451336,0.5821548,0.5831623,0
451339,0.5824909,0.5831623,0
451341,0.5828267,0.5824909,0
451344,0.5821548,0.5821548,0
451346,0.5821548,0.5818186,0
451349,0.5821548,0.5818186,0
451351,0.5821548,0.5828267,0
451354,0.5821548,0.5828267,0
451356,0.5821548,0.5824909,0
451358,0.5824909,0.5828267,0
451361,0.5824909,0.5828267,0
451363,0.5828267,0.5834977,0
451366,0.5831623,0.583833,0
451368,0.5831623,0.583833,0
451372,0.5824909,0.5834977,0
451374,0.5824909,0.5834977,0
451377,0.5818186,0.5818186,0
451379,0.5814822,0.5811456,0
451382,0.5814822,0.5811456,0
451384,0.5801346,0.5804718,0
451387,0.5797972,0.5797972,0.01978234
451389,0.5797972,0.5797972,0.01978234
451392,0.5814822,0.5818186,0
451394,0.5814822,0.5818186,0
451397,0.5818186,0.5821548,0
451399,0.583833,0.5841681,0
451402,0.583833,0.5841681,0
451404,0.5845029,0.5845029,0.02797646
451407,0.5848376,0.5848376,0
451409,0.5848376,0.5848376,0
451412,0.5845029,0.5851721,0
451415,0.5845029,0.5851721,0
451418,0.5845029,0.5851721,0
451420,0.5845029,0.5848376,0
451423,0.5845029,0.5848376,0
451425,0.5848376,0.5851721,0.02797646
451428,0.5848376,0.5851721,0
451430,0.5848376,0.5851721,0
451433,0.583833,0.5845029,0
451435,0.583833,0.5845029,0
451438,0.5834977,0.5834977,0.02797646
451440,0.5828267,0.5831623,0
451443,0.5828267,0.5831623,0
451445,0.5818186,0.5821548,0.02797646
451448,0.5818186,0.5821548,0.02797646
451450,0.5818186,0.5821548,0.02797646
451453,0.5818186,0.5821548,0.02797646
451456,0.5818186,0.5821548,0.02797646
451459,0.5818186,0.5821548,0.02797646
451461,0.5818186,0.5821548,0.02797646
451464,0.5818186,0.5821548,0.02797646
451466,0.5828267,0.5831623,0
451469,0.583833,0.5841681,0
451471,0.583833,0.5841681,0
451474,0.5848376,0.5858405,0
451476,0.5848376,0.5858405,0
451479,0.5858405,0.5861744,0
451481,0.5855064,0.5858405,0
451484,0.5855064,0.5858405,0
451486,0.5851721,0.5855064,0
451488,0.5851721,0.5855064,0
451491,0.5845029,0.5855064,0
451493,0.5845029,0.5851721,0
451496,0.5845029,0.5851721,0
451499,0.5855064,0.5858405,0
451502,0.5855064,0.5858405,0
451504,0.5855064,0.5858405,0
451507,0.5868416,0.5878411,0
451509,0.5868416,0.5878411,0
451512,0.5881739,0.5885065,0
451514,0.5881739,0.5885065,0
451517,0.5881739,0.5885065,0
451519,0.5878411,0.5881739,0
451522,0.5878411,0.5878411,0.02797646
451524,0.5878411,0.5878411,0.02797646
451527,0.5858405,0.5868416,0
451529,0.5858405,0.5868416,0
451532,0.5848376,0.5855064,0
451534,0.5841681,0.5845029,0
451537,0.5841681,0.5845029,0
451539,0.5828267,0.5831623,0
451543,0.5824909,0.5828267,0
451545,0.5824909,0.5828267,0
451548,0.5818186,0.5824909,0
451550,0.5818186,0.5824909,0
451553,0.5801346,0.5801346,0
451555,0.5791218,0.5794597,0
451558,0.5791218,0.5794597,0
451560,0.5787839,0.5791218,0
451563,0.5777687,0.5781073,0
451565,0.5777687,0.5781073,0
451568,0.57743,0.5781073,0
451570,0.57743,0.5781073,0
451573,0.577091,0.577091,0
451575,0.5777687,0.5777687,0
451578,0.5777687,0.5777687,0
451580,0.5777687,0.5781073,0
451584,0.577091,0.57743,0
451586,0.577091,0.57743,0
451589,0.5767518,0.577091,0
451591,0.5767518,0.577091,0
451594,0.5801346,0.5804718,0
451596,0.5808088,0.5814822,0
451599,0.5808088,0.5814822,0
451601,0.5811456,0.5814822,0
451604,0.5814822,0.5818186,0
451606,0.5814822,0.5818186,0
451609,0.5797972,0.5801346,0
451611,0.5797972,0.5801346,0
451614,0.57743,0.5781073,0
451616,0.57743,0.5777687,0
451618,0.57743,0.5777687,0
451621,0.57743,0.5781073,0
451623,0.57743,0.5781073,0
451627,0.57743,0.5781073,0
451629,0.57743,0.5781073,0
451632,0.57743,0.5781073,0
451634,0.5781073,0.5784457,0
451637,0.5787839,0.5794597,0
451639,0.5787839,0.5794597,0
451642,0.5794597,0.5797972,0
451644,0.5794597,0.5797972,0
451647,0.5801346,0.5804718,0
451649,0.5794597,0.5801346,0
451652,0.5794597,0.5801346,0
451654,0.5791218,0.5797972,0
451657,0.5794597,0.5797972,0.02797646
451659,0.5794597,0.5797972,0.02797646
451662,0.5794597,0.5797972,0.02797646
451664,0.5794597,0.5797972,0.02797646
451667,0.5764125,0.577091,0
451670,0.5753932,0.5760729,0.02797646
451673,0.5753932,0.5760729,0.02797646
451675,0.57743,0.57743,0
451678,0.5781073,0.5784457,0.02797646
451680,0.5781073,0.5784457,0.02797646
451683,0.57743,0.5781073,0
451685,0.57743,0.5781073,0
451688,0.57743,0.5781073,0
451690,0.5781073,0.5777687,0
451693,0.5781073,0.5777687,0
451695,0.5757331,0.5757331,0.02797646
451698,0.5760729,0.5767518,0
451700,0.5760729,0.5767518,0
451703,0.577091,0.57743,0
451705,0.577091,0.57743,0
451708,0.57743,0.5781073,0
451710,0.57743,0.5781073,0
451714,0.57743,0.5781073,0
451716,0.5777687,0.5781073,0
451719,0.5781073,0.5787839,0
451721,0.5781073,0.5787839,0
451724,0.5784457,0.5791218,0
451726,0.5784457,0.5791218,0
451729,0.5791218,0.5794597,0
451731,0.5801346,0.5808088,0
451734,0.5801346,0.5808088,0
451736,0.5818186,0.5824909,0
451739,0.5811456,0.5814822,0
451741,0.5811456,0.5814822,0
451744,0.5801346,0.5811456,0
451746,0.5801346,0.5811456,0
451748,0.5808088,0.5818186,0.02797646
451751,0.5821548,0.5828267,0
451753,0.5821548,0.5828267,0
451757,0.5824909,0.5828267,0
451759,0.5824909,0.5828267,0
451762,0.5824909,0.5831623,0
451764,0.5824909,0.5831623,0.02797646
451767,0.5824909,0.5831623,0.02797646
451769,0.5818186,0.5824909,0
451772,0.5821548,0.5831623,0.02797646
451774,0.5821548,0.5831623,0.02797646
451777,0.5824909,0.5834977,0
451779,0.5824909,0.5834977,0
451782,0.5848376,0.5851721,0
451784,0.5855064,0.5858405,0
451787,0.5855064,0.5858405,0
451789,0.5878411,0.5885065,0
451792,0.5885065,0.5898349,0
451794,0.5885065,0.5898349,0
451798,0.589503,0.590498,0
451800,0.589503,0.590498,0
451803,0.5898349,0.5901666,0
451805,0.5901666,0.590498,0
451808,0.5901666,0.590498,0
451810,0.5901666,0.590498,0
451813,0.590498,0.590498,0
451815,0.590498,0.590498,0
451818,0.5898349,0.5898349,0
451820,0.5898349,0.5898349,0
451823,0.589503,0.5898349,0
451825,0.5878411,0.5881739,0
451828,0.5878411,0.5881739,0
451830,0.587175,0.5875081,0
451833,0.5858405,0.5861744,0
451835,0.5858405,0.5861744,0
451838,0.5855064,0.5861744,0
451841,0.5855064,0.5861744,0
451844,0.5845029,0.5851721,0
451846,0.5831623,0.5834977,0.02797646
451849,0.5831623,0.5834977,0.02797646
451851,0.5831623,0.5834977,0.02797646
451854,0.5828267,0.5831623,0.02797646
451856,0.5828267,0.5831623,0.02797646
451859,0.5861744,0.5868416,0
451861,0.5861744,0.5868416,0
451864,0.5898349,0.5901666,0
451866,0.5911604,0.591822,0
451869,0.5911604,0.591822,0
451871,0.591822,0.5928131,0
451874,0.5954478,0.5961047,0
451876,0.5954478,0.5961047,0
451878,0.5967609,0.5974163,0
451881,0.5967609,0.5974163,0
451884,0.5970887,0.5977437,0
451887,0.5974163,0.5977437,0
451889,0.5974163,0.5977437,0
451892,0.5970887,0.5977437,0
451894,0.5970887,0.5977437,0
451897,0.5974163,0.5977437,0
451899,0.5974163,0.5974163,0.02797646
451902,0.5974163,0.5974163,0.02797646
451904,0.5967609,0.5974163,0
451907,0.5983981,0.5990517,0
451909,0.5983981,0.5990517,0
451912,0.598725,0.5993783,0
451914,0.598725,0.5993783,0
451917,0.5977437,0.598071,0
451919,0.5974163,0.598071,0
451922,0.5974163,0.598071,0
451924,0.5957764,0.5957764,0
451928,0.5931431,0.5934729,0
451930,0.5931431,0.5934729,0
451933,0.5934729,0.5938025,0
451935,0.5934729,0.5938025,0
451938,0.5941319,0.5947903,0
451940,0.5928131,0.5934729,0
451943,0.5921526,0.5931431,0
451945,0.5921526,0.5931431,0
451948,0.5921526,0.5931431,0
451950,0.5921526,0.5931431,0
451953,0.5921526,0.5931431,0
451955,0.5921526,0.5931431,0
451958,0.5891711,0.589503,0
451960,0.5878411,0.5881739,0
451963,0.5878411,0.5881739,0
451965,0.5865081,0.587175,0.02797646
451969,0.5861744,0.5865081,0
451971,0.5861744,0.5865081,0
451974,0.5855064,0.5861744,0
451976,0.5855064,0.5861744,0
451979,0.5821548,0.5831623,0
451981,0.5791218,0.5791218,0.02797646
451984,0.5791218,0.5791218,0.02797646
451986,0.577091,0.57743,0
451989,0.5757331,0.5760729,0
451991,0.5757331,0.5760729,0
451994,0.5760729,0.5764125,0
451996,0.5760729,0.5764125,0
451999,0.5767518,0.5767518,0
452001,0.57743,0.57743,0
452004,0.57743,0.57743,0
452006,0.57743,0.57743,0
452008,0.5767518,0.5767518,0
452012,0.5767518,0.5767518,0
452014,0.577091,0.5777687,0
452017,0.577091,0.5777687,0
452019,0.57743,0.5777687,0
452022,0.57743,0.577091,0.02797646
452024,0.57743,0.577091,0.02797646
452027,0.5767518,0.577091,0
452029,0.5767518,0.577091,0
452032,0.575053,0.5753932,0
452034,0.5730078,0.5730078,0.01978234
452037,0.5730078,0.5730078,0.01978234
452039,0.5723243,0.5723243,0.02797646
452042,0.5719823,0.5726661,0
452044,0.5719823,0.5726661,0
452047,0.5719823,0.5723243,0.02797646
452049,0.5726661,0.5733491,0
452052,0.5733491,0.5736903,0
452055,0.5730078,0.5736903,0
452058,0.5730078,0.5736903,0
452060,0.5726661,0.5726661,0.02797646
452063,0.5716401,0.5719823,0
452065,0.5716401,0.5719823,0
452068,0.5712977,0.5716401,0
452070,0.5712977,0.5716401,0
452073,0.5709552,0.5716401,0
452075,0.5712977,0.5719823,0
452078,0.5712977,0.5719823,0
452080,0.5719823,0.5723243,0
452083,0.5726661,0.5733491,0
452085,0.5726661,0.5733491,0
452088,0.5740312,0.5736903,0
452090,0.5740312,0.5736903,0
452093,0.5740312,0.575053,0
452096,0.575053,0.5757331,0
452099,0.575053,0.5757331,0
452101,0.5760729,0.5760729,0
452104,0.5760729,0.5764125,0
452106,0.5760729,0.5764125,0
452109,0.5753932,0.5753932,0
452111,0.5753932,0.5753932,0
452114,0.575053,0.575053,0.02797646
452116,0.575053,0.5753932,0.02797646
452119,0.575053,0.5753932,0.02797646
452121,0.5747126,0.575053,0
452124,0.5747126,0.575053,0
452126,0.5747126,0.575053,0
452129,0.5747126,0.575053,0
452131,0.5747126,0.575053,0
452134,0.5760729,0.5764125,0
452136,0.5764125,0.5764125,0
452139,0.5764125,0.5764125,0
452142,0.5777687,0.5781073,0
452144,0.5791218,0.5791218,0
452147,0.5791218,0.5791218,0
452149,0.5787839,0.5794597,0
452152,0.5787839,0.5794597,0
452154,0.5794597,0.5794597,0
452157,0.5787839,0.5791218,0
452159,0.5787839,0.5791218,0
452162,0.5781073,0.5784457,0
452164,0.5781073,0.5784457,0
452167,0.5787839,0.5791218,0
452169,0.5794597,0.5804718,0
452172,0.5794597,0.5804718,0
452174,0.5808088,0.5814822,0
452177,0.5824909,0.5824909,0
452179,0.5824909,0.5824909,0
452183,0.5828267,0.5831623,0.02797646
452185,0.5828267,0.5831623,0.02797646
452188,0.5834977,0.5841681,0
452190,0.5841681,0.5845029,0.02797646
452193,0.5841681,0.5845029,0.02797646
452195,0.5851721,0.5851721,0
452198,0.583833,0.583833,0
452200,0.583833,0.583833,0
452203,0.5818186,0.5828267,0
452205,0.5818186,0.5828267,0
452208,0.5804718,0.5814822,0
452210,0.5811456,0.5811456,0.02797646
452213,0.5811456,0.5811456,0.02797646
452215,0.5801346,0.5808088,0
452218,0.5801346,0.5808088,0
452220,0.5801346,0.5808088,0
452224,0.5808088,0.5808088,0
452226,0.5808088,0.5808088,0
452229,0.5814822,0.5824909,0.02797646
452231,0.5818186,0.5821548,0
452234,0.5818186,0.5821548,0
452236,0.5814822,0.5818186,0
452239,0.5811456,0.5814822,0.02797646
452241,0.5811456,0.5814822,0.02797646
452244,0.5808088,0.5811456,0
452246,0.5808088,0.5811456,0
452249,0.5804718,0.5811456,0
452251,0.5794597,0.5804718,0
452254,0.5794597,0.5804718,0
452256,0.5797972,0.5804718,0
452259,0.5797972,0.5801346,0.02797646
452261,0.5797972,0.5801346,0.02797646
452264,0.5801346,0.5801346,0.02797646
452267,0.5801346,0.5801346,0.02797646
452269,0.5801346,0.5804718,0.02797646
452272,0.5791218,0.5794597,0
452274,0.5791218,0.5794597,0
452277,0.57743,0.5784457,0
452279,0.577091,0.5777687,0
452282,0.577091,0.5777687,0
452284,0.5757331,0.5760729,0
452287,0.5757331,0.5760729,0
452289,0.575053,0.5753932,0
452292,0.5743721,0.575053,0
452294,0.5743721,0.575053,0
452297,0.5743721,0.5747126,0.02797646
452299,0.5743721,0.5747126,0.02797646
452302,0.5699261,0.5706123,0
452304,0.5682068,0.569239,0
452307,0.5682068,0.569239,0
452310,0.5685511,0.569239,0
452313,0.569239,0.5695826,0
452315,0.569239,0.5695826,0
452318,0.5695826,0.5702693,0
452320,0.5695826,0.5702693,0
452323,0.5695826,0.5702693,0.02797646
452325,0.569239,0.5699261,0.02797646
452328,0.569239,0.5699261,0.02797646
452330,0.5702693,0.5702693,0.02797646
452333,0.5709552,0.5709552,0
452335,0.5709552,0.5709552,0
452338,0.5726661,0.5733491,0.02797646
452340,0.5726661,0.5733491,0.02797646
452343,0.5740312,0.5747126,0
452345,0.5760729,0.5764125,0
452348,0.5760729,0.5764125,0
452350,0.5757331,0.5764125,0.02797646
452354,0.575053,0.5753932,0
452356,0.575053,0.5753932,0
452359,0.5757331,0.5760729,0
452361,0.5757331,0.5760729,0
452364,0.5760729,0.5764125,0
452366,0.5740312,0.5740312,0.02797646
452369,0.5740312,0.5740312,0.02797646
452371,0.5730078,0.5730078,0
452374,0.5740312,0.5740312,0
452376,0.5740312,0.5740312,0
452379,0.5753932,0.5757331,0
452381,0.5753932,0.5757331,0
452384,0.5740312,0.5747126,0.02797646
452386,0.5736903,0.5740312,0
452389,0.5736903,0.5740312,0
452391,0.5730078,0.5730078,0
452395,0.5723243,0.5723243,0
452397,0.5723243,0.5723243,0
452400,0.5706123,0.5709552,0
452402,0.5706123,0.5709552,0
452404,0.5702693,0.5699261,0
452407,0.5699261,0.5702693,0.02797646
452409,0.5699261,0.5702693,0.02797646
452412,0.5702693,0.5702693,0
452414,0.5702693,0.5706123,0
452417,0.5702693,0.5706123,0
452419,0.5706123,0.5706123,0
452422,0.5706123,0.5706123,0
452424,0.5716401,0.5719823,0.02797646
452427,0.5719823,0.5723243,0
452429,0.5719823,0.5723243,0
452432,0.5730078,0.5733491,0
452434,0.5730078,0.5733491,0
452438,0.5736903,0.5740312,0
452440,0.5733491,0.5736903,0
452443,0.5733491,0.5736903,0
452445,0.5730078,0.5726661,0
452448,0.5712977,0.5716401,0
452450,0.5712977,0.5716401,0
452453,0.5695826,0.5695826,0
452455,0.5695826,0.5695826,0
452458,0.5695826,0.5699261,0
452460,0.5695826,0.5699261,0
452463,0.5695826,0.5699261,0
452465,0.5702693,0.5709552,0
452468,0.5709552,0.5712977,0.01978234
452470,0.5709552,0.5712977,0.01978234
452473,0.5706123,0.5712977,0
452475,0.5706123,0.5712977,0
452478,0.5702693,0.5706123,0.02797646
452481,0.5702693,0.5702693,0.02797646
452484,0.5702693,0.5702693,0.02797646
452486,0.5716401,0.5723243,0
452489,0.5716401,0.5719823,0
452491,0.5716401,0.5719823,0
452494,0.5712977,0.5712977,0
452496,0.5712977,0.5712977,0
452499,0.5702693,0.5706123,0
452501,0.5695826,0.5702693,0
452504,0.5695826,0.5702693,0
452506,0.5702693,0.5709552,0
452509,0.5709552,0.5716401,0
452511,0.5709552,0.5716401,0
452514,0.5712977,0.5719823,0
452516,0.5712977,0.5719823,0
452519,0.5712977,0.5716401,0
452521,0.5712977,0.5723243,0
452525,0.5712977,0.5723243,0
452527,0.5719823,0.5719823,0.02797646
452530,0.5723243,0.5730078,0
452532,0.5723243,0.5730078,0
452534,0.5723243,0.5730078,0
452537,0.5723243,0.5730078,0
452539,0.5726661,0.5726661,0.02797646
452542,0.5716401,0.5723243,0
452544,0.5716401,0.5723243,0
452547,0.5723243,0.5726661,0.02797646
452549,0.5736903,0.5740312,0
452552,0.5736903,0.5740312,0
452554,0.5747126,0.5747126,0.02797646
452557,0.5747126,0.5747126,0.02797646
452559,0.57743,0.57743,0.01978234
452562,0.5787839,0.5787839,0
452564,0.5787839,0.5787839,0
452568,0.5784457,0.5787839,0
452570,0.5781073,0.5784457,0
452573,0.5781073,0.5784457,0
452575,0.5767518,0.577091,0.02797646
452578,0.5767518,0.577091,0.02797646
452580,0.5764125,0.5764125,0
452583,0.5743721,0.5743721,0
452585,0.5743721,0.5743721,0
452588,0.5736903,0.5736903,0.02797646
452590,0.5736903,0.5736903,0.02797646
452593,0.5716401,0.5723243,0
452595,0.5702693,0.5706123,0
452598,0.5702693,0.5706123,0
452600,0.569239,0.5695826,0
452603,0.5678623,0.5678623,0
452605,0.5678623,0.5678623,0
452609,0.5678623,0.5678623,0
452611,0.5678623,0.5678623,0
452614,0.5678623,0.5682068,0.02797646
452616,0.5685511,0.569239,0
452619,0.5685511,0.569239,0
452621,0.5702693,0.5706123,0
452624,0.5699261,0.5702693,0.02797646
452626,0.5695826,0.5695826,0
452629,0.5688952,0.569239,0
452631,0.5688952,0.569239,0
452634,0.5685511,0.5688952,0
452636,0.5682068,0.5688952,0
452639,0.5682068,0.5688952,0
452641,0.5675176,0.5675176,0
452644,0.5671728,0.5675176,0
452646,0.5671728,0.5675176,0
452649,0.5668277,0.5671728,0
452652,0.5668277,0.5671728,0
452655,0.5668277,0.5671728,0
452657,0.5647526,0.5654452,0
452660,0.5647526,0.5654452,0
452662,0.5640592,0.5640592,0
452664,0.5668277,0.5675176,0
452667,0.5668277,0.5675176,0
452669,0.5678623,0.5682068,0
452672,0.5678623,0.5682068,0
452674,0.5682068,0.5685511,0
452677,0.5678623,0.5682068,0
452679,0.5678623,0.5682068,0
452682,0.5668277,0.5675176,0
452684,0.5664824,0.5664824,0
452687,0.5664824,0.5664824,0
452689,0.5657911,0.5661368,0
452692,0.5657911,0.5661368,0
452695,0.5668277,0.5668277,0
452698,0.5664824,0.5671728,0
452700,0.5664824,0.5671728,0
452703,0.5657911,0.5661368,0
452705,0.5654452,0.5657911,0
452708,0.5654452,0.5657911,0
452710,0.5661368,0.5664824,0
452713,0.5661368,0.5664824,0
452715,0.5675176,0.5678623,0
452718,0.5685511,0.5685511,0
452720,0.5685511,0.5685511,0
452723,0.5688952,0.5688952,0
452725,0.5688952,0.5688952,0
452728,0.5682068,0.5685511,0
452730,0.5685511,0.569239,0
452733,0.5685511,0.569239,0
452736,0.569239,0.5699261,0
452739,0.569239,0.5699261,0
452741,0.569239,0.5699261,0
452744,0.5699261,0.5699261,0
452746,0.5699261,0.5699261,0
452749,0.5699261,0.5706123,0
452751,0.5706123,0.5709552,0
452754,0.5706123,0.5709552,0
452756,0.5706123,0.5712977,0
452759,0.5740312,0.5747126,0
452761,0.5740312,0.5747126,0
452764,0.575053,0.5757331,0
452766,0.575053,0.5757331,0
452769,0.5730078,0.5733491,0
452771,0.5723243,0.5719823,0
452774,0.5723243,0.5719823,0
452776,0.5716401,0.5716401,0
452780,0.5719823,0.5719823,0
452782,0.5719823,0.5719823,0
452785,0.5726661,0.5726661,0
452787,0.5726661,0.5726661,0
452790,0.5709552,0.5709552,0
452792,0.5685511,0.5685511,0
452794,0.5685511,0.5685511,0
452797,0.5671728,0.5675176,0
452799,0.564406,0.5647526,0.02797646
452802,0.564406,0.5647526,0.02797646
452804,0.563365,0.563365,0.02797646
452807,0.563365,0.563365,0.02797646
452809,0.5612772,0.5616257,0
452812,0.5609285,0.5612772,0
452814,0.5609285,0.5612772,0
452817,0.5602303,0.5605795,0
452819,0.5602303,0.5598809,0
452823,0.5602303,0.5598809,0
452825,0.5595313,0.5595313,0
452828,0.5595313,0.5595313,0
452830,0.5595313,0.5595313,0
452833,0.5595313,0.5602303,0
452835,0.5602303,0.5602303,0
452838,0.5609285,0.5605795,0
452840,0.5609285,0.5616257,0
452843,0.5609285,0.5616257,0
452845,0.5612772,0.5619739,0
452848,0.5612772,0.5619739,0
452850,0.5616257,0.5623221,0
452853,0.5623221,0.5626699,0.02797646
452855,0.5623221,0.5626699,0.02797646
452858,0.563365,0.5637122,0
452860,0.563365,0.5637122,0
452864,0.5647526,0.5650989,0
452866,0.5664824,0.5668277,0
452869,0.5664824,0.5668277,0
452871,0.5682068,0.5685511,0
452874,0.569239,0.569239,0
452876,0.569239,0.569239,0
452879,0.5702693,0.5702693,0
452881,0.5702693,0.5702693,0
452884,0.5702693,0.5709552,0
452886,0.5709552,0.5716401,0
452889,0.5709552,0.5716401,0
452891,0.5702693,0.5709552,0
452894,0.5695826,0.5702693,0
452896,0.5695826,0.5702693,0
452899,0.5699261,0.5699261,0
452901,0.5699261,0.5699261,0
452904,0.5706123,0.5706123,0
452907,0.5712977,0.5712977,0
452910,0.5719823,0.5719823,0
452912,0.5726661,0.5723243,0
452915,0.5723243,0.5726661,0
452917,0.5723243,0.5726661,0
452920,0.5719823,0.5719823,0
452922,0.5719823,0.5719823,0
452924,0.5716401,0.5719823,0
452927,0.5716401,0.5719823,0
452929,0.5716401,0.5719823,0
452932,0.5699261,0.5702693,0
452934,0.5699261,0.5702693,0
452937,0.5699261,0.5702693,0
452939,0.5682068,0.5685511,0
452942,0.5682068,0.5685511,0
452944,0.5682068,0.5685511,0
452947,0.5671728,0.5675176,0
452950,0.5671728,0.5675176,0
452953,0.5661368,0.5664824,0
452955,0.5654452,0.5654452,0
452958,0.5654452,0.5654452,0
452960,0.5640592,0.5647526,0
452963,0.5640592,0.5647526,0
452965,0.5630175,0.5637122,0
452968,0.5623221,0.5619739,0
452970,0.5623221,0.5619739,0
452973,0.5619739,0.5619739,0
452975,0.5609285,0.5609285,0
452978,0.5609285,0.5609285,0
452980,0.5605795,0.5605795,0
452983,0.5605795,0.5605795,0
452985,0.5591815,0.5595313,0.02797646
452988,0.5584812,0.5591815,0
452990,0.5584812,0.5591815,0
452994,0.55778,0.5581307,0
452996,0.55778,0.5581307,0
452999,0.55778,0.5574291,0
453001,0.5574291,0.5574291,0
453004,0.5574291,0.5574291,0
453006,0.5574291,0.5574291,0
453009,0.5570779,0.5574291,0
453011,0.5570779,0.5574291,0
453014,0.5560232,0.5567266,0
453016,0.5560232,0.5567266,0
453019,0.555319,0.5560232,0.02797646
453021,0.555319,0.5556712,0
453024,0.555319,0.5556712,0
453026,0.5556712,0.5560232,0
453029,0.5560232,0.556375,0
453031,0.5560232,0.556375,0
453035,0.5581307,0.5581307,0
453037,0.5581307,0.5581307,0
453040,0.5595313,0.5598809,0
453042,0.5602303,0.5605795,0
453045,0.5602303,0.5605795,0
453047,0.5598809,0.5605795,0
453050,0.5602303,0.5605795,0.02797646
453052,0.5602303,0.5605795,0.02797646
453054,0.5598809,0.5598809,0
453057,0.5598809,0.5598809,0
453059,0.5602303,0.5602303,0
453062,0.5602303,0.5605795,0
453064,0.5602303,0.5605795,0
453067,0.5605795,0.5605795,0
453069,0.5605795,0.5609285,0
453072,0.5605795,0.5609285,0
453074,0.5616257,0.5616257,0
453078,0.5616257,0.5616257,0
453080,0.5630175,0.5630175,0.02797646
453083,0.563365,0.563365,0.02797646
453085,0.563365,0.563365,0.02797646
453088,0.5640592,0.5640592,0
453090,0.5647526,0.5654452,0
453093,0.5647526,0.5654452,0
453095,0.5664824,0.5668277,0
453098,0.5664824,0.5668277,0
453100,0.5682068,0.5688952,0
453103,0.5688952,0.5688952,0
453105,0.5688952,0.5688952,0
453108,0.5706123,0.5706123,0
453110,0.5709552,0.5709552,0
453113,0.5709552,0.5709552,0
453115,0.5733491,0.5736903,0
453118,0.5733491,0.5736903,0
453121,0.5740312,0.5747126,0
453124,0.5740312,0.5743721,0
453126,0.5740312,0.5743721,0
453129,0.5733491,0.5740312,0
453131,0.5733491,0.5740312,0
453134,0.5733491,0.5733491,0
453136,0.5723243,0.5726661,0
453139,0.5723243,0.5726661,0
453141,0.5726661,0.5730078,0
453144,0.5723243,0.5733491,0
453146,0.5723243,0.5733491,0
453149,0.5719823,0.5723243,0
453151,0.5719823,0.5723243,0
453154,0.5706123,0.5712977,0
453156,0.5699261,0.5706123,0
453159,0.5699261,0.5706123,0
453161,0.569239,0.5695826,0
453165,0.5688952,0.5688952,0
453167,0.5688952,0.5688952,0
453170,0.5678623,0.5685511,0
453172,0.5678623,0.5685511,0
453175,0.5664824,0.5671728,0
453177,0.5661368,0.5664824,0
453180,0.5661368,0.5664824,0
453182,0.5654452,0.5654452,0
453184,0.5647526,0.5654452,0
453187,0.5647526,0.5654452,0
453189,0.5647526,0.5647526,0
453192,0.5647526,0.5647526,0
453194,0.5650989,0.5654452,0
453197,0.5650989,0.5657911,0
453199,0.5650989,0.5657911,0
453202,0.5650989,0.5650989,0
453204,0.5630175,0.5630175,0
453208,0.5630175,0.5630175,0
453210,0.5612772,0.5616257,0
453213,0.5612772,0.5616257,0
453215,0.5584812,0.5591815,0
453218,0.5581307,0.55778,0
453220,0.5581307,0.55778,0
453223,0.5570779,0.5570779,0
453225,0.5570779,0.5570779,0
453228,0.5570779,0.5570779,0
453230,0.5570779,0.5570779,0
453233,0.5570779,0.5570779,0
453235,0.5567266,0.5570779,0
453238,0.5567266,0.556375,0
453240,0.5567266,0.556375,0
453243,0.556375,0.5560232,0
453245,0.556375,0.5567266,0
453249,0.556375,0.5567266,0
453251,0.5574291,0.5574291,0
453254,0.5574291,0.5574291,0
453256,0.5581307,0.5581307,0
453259,0.5581307,0.5584812,0
453261,0.5581307,0.5584812,0
453264,0.5595313,0.5595313,0
453266,0.5595313,0.5595313,0
453269,0.5598809,0.5598809,0
453271,0.5609285,0.5609285,0
453274,0.5609285,0.5609285,0
453276,0.5616257,0.5619739,0.02797646
453279,0.5612772,0.5623221,0
453281,0.5612772,0.5623221,0
453284,0.5626699,0.5630175,0
453286,0.5626699,0.5630175,0
453289,0.564406,0.5647526,0
453292,0.5654452,0.5654452,0
453295,0.5654452,0.5654452,0
453297,0.5650989,0.5654452,0.02797646
453300,0.564406,0.5647526,0.02797646
453302,0.564406,0.5647526,0.02797646
453305,0.5637122,0.563365,0
453307,0.5637122,0.563365,0
453310,0.5626699,0.5623221,0
453312,0.5612772,0.5616257,0
453314,0.5612772,0.5616257,0
453317,0.5609285,0.5612772,0.02797646
453319,0.5609285,0.5612772,0.02797646
453322,0.5605795,0.5609285,0
453324,0.5605795,0.5605795,0
453327,0.5605795,0.5605795,0
453329,0.5605795,0.5605795,0
453332,0.5609285,0.5609285,0
453335,0.5609285,0.5609285,0
453338,0.5605795,0.5609285,0
453340,0.5602303,0.5605795,0.02797646
453343,0.5602303,0.5605795,0.02797646
453345,0.5602303,0.5605795,0
453348,0.5602303,0.5605795,0
453350,0.5581307,0.5588315,0
453353,0.55778,0.55778,0
453355,0.55778,0.55778,0
453358,0.5567266,0.5570779,0
453360,0.556375,0.5567266,0
453363,0.556375,0.5567266,0
453365,0.5584812,0.5584812,0
453368,0.5584812,0.5584812,0
453370,0.5591815,0.5591815,0
453373,0.5591815,0.5591815,0
453376,0.5591815,0.5591815,0
453379,0.5591815,0.5595313,0
453381,0.5595313,0.5591815,0
453384,0.5595313,0.5591815,0
453386,0.5591815,0.5598809,0
453389,0.5591815,0.5598809,0
453391,0.5598809,0.5602303,0
453394,0.5616257,0.5619739,0
453396,0.5616257,0.5619739,0
453399,0.5619739,0.5619739,0
453401,0.5619739,0.5619739,0
453404,0.5619739,0.5619739,0
453406,0.563365,0.5630175,0
453409,0.563365,0.5630175,0
453411,0.5647526,0.5647526,0
453414,0.5647526,0.5650989,0
453416,0.5647526,0.5650989,0
453420,0.5647526,0.5650989,0
453422,0.5647526,0.5647526,0
453425,0.564406,0.564406,0
453427,0.5637122,0.5640592,0
453430,0.5637122,0.5640592,0
453432,0.5640592,0.5640592,0
453435,0.564406,0.564406,0
453437,0.564406,0.564406,0
453440,0.5657911,0.5661368,0
453442,0.5657911,0.5661368,0
453444,0.5668277,0.5671728,0
453447,0.5671728,0.5671728,0
453449,0.5671728,0.5671728,0
453452,0.5668277,0.5668277,0.02797646
453454,0.5661368,0.5661368,0
453457,0.5661368,0.5661368,0
453459,0.5671728,0.5678623,0
453463,0.5671728,0.5678623,0
453465,0.5675176,0.5685511,0
453468,0.5682068,0.5685511,0
453470,0.5682068,0.5685511,0
453473,0.5688952,0.5695826,0
453475,0.5695826,0.5699261,0
453478,0.5695826,0.5699261,0
453480,0.5709552,0.5709552,0.02797646
453483,0.5709552,0.5709552,0.02797646
453485,0.5709552,0.5712977,0
453488,0.5706123,0.5709552,0
453490,0.5706123,0.5709552,0
453493,0.5702693,0.5706123,0
453495,0.5706123,0.5702693,0
453498,0.5706123,0.5702693,0
453500,0.5699261,0.5709552,0
453504,0.5699261,0.5709552,0
453506,0.5706123,0.5709552,0
453509,0.5709552,0.5716401,0
453511,0.5709552,0.5716401,0
453514,0.5709552,0.5709552,0
453516,0.5702693,0.5702693,0
453519,0.5702693,0.5702693,0
453521,0.5695826,0.5695826,0
453524,0.5695826,0.5695826,0
453526,0.569239,0.569239,0
453529,0.5685511,0.569239,0
453531,0.5685511,0.569239,0
453534,0.5709552,0.5716401,0
453536,0.5709552,0.5716401,0
453539,0.5719823,0.5726661,0
453541,0.5723243,0.5730078,0
453544,0.5723243,0.5730078,0
453547,0.5723243,0.5730078,0
453550,0.5709552,0.5712977,0.02797646
453552,0.5709552,0.5712977,0.02797646
453555,0.5702693,0.5709552,0
453557,0.5702693,0.5709552,0
453560,0.569239,0.5699261,0
453562,0.5688952,0.5695826,0.02797646
453565,0.5688952,0.5695826,0.02797646
453567,0.5695826,0.5699261,0
453570,0.5699261,0.5702693,0.02797646
453572,0.5699261,0.5702693,0.02797646
453574,0.5702693,0.5709552,0
453577,0.5702693,0.5709552,0
453579,0.5709552,0.5709552,0.02797646
453582,0.5706123,0.5706123,0
453584,0.5706123,0.5706123,0
453587,0.5706123,0.5709552,0
453590,0.5709552,0.5712977,0
453593,0.5709552,0.5712977,0
453595,0.5709552,0.5716401,0
453598,0.5709552,0.5716401,0
453600,0.5702693,0.5702693,0
453603,0.5685511,0.5685511,0
453605,0.5685511,0.5685511,0
453608,0.5702693,0.5709552,0
453610,0.5712977,0.5716401,0
453613,0.5712977,0.5716401,0
453615,0.5695826,0.5695826,0
453618,0.5695826,0.5695826,0
453620,0.5688952,0.569239,0
453623,0.5688952,0.5695826,0
453625,0.5688952,0.5695826,0
453628,0.5688952,0.5688952,0
453630,0.5688952,0.5695826,0
453634,0.5688952,0.5695826,0
453636,0.5688952,0.5688952,0
453639,0.5688952,0.5688952,0
453641,0.5706123,0.5706123,0
453644,0.5719823,0.5719823,0.02797646
453646,0.5719823,0.5719823,0.02797646
453649,0.5743721,0.5747126,0
453651,0.575053,0.5753932,0.02797646
453654,0.575053,0.5753932,0.02797646
453656,0.5760729,0.5767518,0
453659,0.5760729,0.5767518,0
453661,0.5767518,0.577091,0
453664,0.5767518,0.577091,0
453666,0.5767518,0.577091,0
453669,0.57743,0.57743,0
453671,0.577091,0.577091,0
453675,0.577091,0.577091,0
453677,0.5764125,0.5767518,0
453680,0.5764125,0.5767518,0
453682,0.5730078,0.5736903,0
453685,0.5709552,0.5709552,0
453687,0.5709552,0.5709552,0
453690,0.5675176,0.5675176,0
453692,0.5675176,0.5675176,0
453695,0.5671728,0.5678623,0
453697,0.5664824,0.5661368,0
453700,0.5664824,0.5661368,0
453702,0.5650989,0.5654452,0
453705,0.5654452,0.5661368,0
453707,0.5654452,0.5661368,0
453709,0.5668277,0.5664824,0
453712,0.5668277,0.5664824,0
453714,0.5675176,0.5675176,0
453718,0.5685511,0.5682068,0
453720,0.5685511,0.5682068,0
453723,0.5682068,0.5682068,0
453725,0.5675176,0.5685511,0
453728,0.5671728,0.5675176,0
453730,0.5671728,0.5678623,0
453733,0.5671728,0.5678623,0
453735,0.5668277,0.5675176,0
453738,0.5671728,0.5675176,0
453740,0.5671728,0.5675176,0
453743,0.5668277,0.5671728,0
453745,0.5668277,0.5671728,0
453748,0.5668277,0.5671728,0
453750,0.5709552,0.5716401,0
453753,0.5709552,0.5716401,0
453755,0.5726661,0.5730078,0
453758,0.5753932,0.5760729,0
453761,0.5753932,0.5760729,0
453764,0.5764125,0.577091,0
453766,0.57743,0.5781073,0.02797646
453769,0.57743,0.5781073,0.02797646
453771,0.57743,0.5777687,0.02797646
453774,0.57743,0.5777687,0.02797646
453776,0.57743,0.5781073,0
453779,0.5781073,0.5784457,0.02797646
453781,0.5781073,0.5784457,0.02797646
453784,0.5784457,0.5787839,0
453786,0.5787839,0.5791218,0
453789,0.5787839,0.5791218,0
453791,0.5801346,0.5804718,0.02797646
453794,0.5801346,0.5804718,0.02797646
453796,0.5804718,0.5811456,0.02797646
453799,0.5797972,0.5797972,0
453801,0.5797972,0.5797972,0
453805,0.5777687,0.5777687,0
453807,0.5764125,0.5764125,0
453810,0.5764125,0.5764125,0
453812,0.5753932,0.5753932,0.02797646
453815,0.5753932,0.5753932,0.02797646
453817,0.5706123,0.5712977,0
453820,0.5678623,0.5682068,0.02797646
453822,0.5678623,0.5682068,0.02797646
453825,0.5664824,0.5668277,0
453827,0.5664824,0.5668277,0
453830,0.5650989,0.5657911,0
453832,0.5647526,0.5650989,0
453835,0.5647526,0.5650989,0
453837,0.5654452,0.5657911,0
453839,0.5654452,0.5661368,0
453842,0.5654452,0.5661368,0
453844,0.5668277,0.5664824,0
453848,0.5668277,0.5664824,0
453850,0.5675176,0.5675176,0
453853,0.5678623,0.5678623,0
453855,0.5678623,0.5678623,0
453858,0.5685511,0.5685511,0
453860,0.5695826,0.5702693,0
453863,0.5695826,0.5702693,0
453865,0.5699261,0.5699261,0
453868,0.5699261,0.5699261,0
453870,0.5702693,0.5702693,0
453873,0.5661368,0.5668277,0.02797646
453875,0.5661368,0.5668277,0.02797646
453878,0.5654452,0.5657911,0.02797646
453880,0.5637122,0.564406,0
453883,0.5637122,0.564406,0
453885,0.563365,0.5637122,0.02797646
453889,0.563365,0.5637122,0.02797646
453891,0.5623221,0.563365,0
453894,0.5619739,0.5626699,0
453896,0.5619739,0.5626699,0
453899,0.5609285,0.5612772,0.02797646
453901,0.5609285,0.5612772,0.02797646
453904,0.5609285,0.5612772,0.02797646
453906,0.5602303,0.5602303,0
453909,0.5602303,0.5602303,0
453911,0.5602303,0.5598809,0
453914,0.5598809,0.5602303,0.02797646
453916,0.5598809,0.5602303,0.02797646
453919,0.5598809,0.5595313,0.02797646
453921,0.5588315,0.5595313,0
453924,0.5588315,0.5595313,0
453926,0.5581307,0.5584812,0
453929,0.5581307,0.5584812,0
453932,0.5581307,0.5581307,0
453935,0.55778,0.55778,0.02797646
453937,0.55778,0.55778,0.02797646
453940,0.5574291,0.5570779,0
453942,0.5567266,0.5567266,0
453945,0.5567266,0.5567266,0
453947,0.5567266,0.5567266,0
453950,0.5567266,0.5567266,0
453952,0.5567266,0.5567266,0
453955,0.5595313,0.5598809,0.02797646
453957,0.5595313,0.5598809,0.02797646
453960,0.5619739,0.5626699,0
453962,0.5619739,0.5626699,0
453965,0.5640592,0.564406,0.02797646
453967,0.5640592,0.564406,0.02797646
453969,0.5640592,0.564406,0.02797646
453972,0.5640592,0.564406,0
453975,0.5626699,0.563365,0
453978,0.5626699,0.563365,0
453980,0.5623221,0.5630175,0
453983,0.5623221,0.5630175,0
453985,0.5637122,0.564406,0
453988,0.5640592,0.564406,0
453990,0.5640592,0.564406,0
453993,0.5640592,0.5650989,0
453995,0.5647526,0.564406,0
453998,0.5647526,0.564406,0
454000,0.5640592,0.564406,0
454003,0.5640592,0.564406,0
454005,0.5637122,0.564406,0
454008,0.564406,0.5650989,0
454010,0.564406,0.5650989,0
454013,0.5647526,0.5650989,0
454016,0.564406,0.564406,0
454019,0.564406,0.564406,0
454021,0.564406,0.5647526,0
454024,0.564406,0.5647526,0
454026,0.5640592,0.5647526,0
454029,0.5640592,0.564406,0
454031,0.5640592,0.564406,0
454034,0.5623221,0.5623221,0
454036,0.5612772,0.5616257,0
454039,0.5612772,0.5616257,0
454041,0.5605795,0.5612772,0
454044,0.5605795,0.5612772,0
454046,0.5602303,0.5609285,0
454049,0.5612772,0.5612772,0
454051,0.5612772,0.5612772,0
454054,0.5623221,0.5626699,0
454056,0.5623221,0.5630175,0
454060,0.5623221,0.5630175,0
454062,0.5630175,0.5637122,0
454065,0.5630175,0.5637122,0
454067,0.563365,0.563365,0
454070,0.5630175,0.5630175,0
454072,0.5630175,0.5630175,0
454075,0.5623221,0.5626699,0
454077,0.5612772,0.5616257,0.02797646
454080,0.5612772,0.5616257,0.02797646
454082,0.5602303,0.5605795,0.02797646
454085,0.5602303,0.5605795,0.02797646
454087,0.5588315,0.5588315,0.02797646
454090,0.5598809,0.5595313,0
454092,0.5598809,0.5595313,0
454095,0.5598809,0.5598809,0
454097,0.5598809,0.5598809,0
454099,0.5595313,0.5598809,0
454103,0.5591815,0.5591815,0
454105,0.5591815,0.5591815,0
454108,0.5602303,0.5605795,0
454110,0.5609285,0.5612772,0.02797646
454113,0.5609285,0.5612772,0.02797646
454115,0.5626699,0.5626699,0
454118,0.5626699,0.5626699,0
454120,0.5637122,0.5637122,0
454123,0.5657911,0.5657911,0
454125,0.5657911,0.5657911,0
454128,0.5682068,0.5682068,0
454130,0.5682068,0.5685511,0
454133,0.5682068,0.5685511,0
454135,0.5685511,0.5685511,0
454138,0.5685511,0.5685511,0
454140,0.5695826,0.5699261,0
454144,0.5709552,0.5709552,0
454146,0.5709552,0.5709552,0
454149,0.5706123,0.5706123,0
454151,0.5702693,0.5702693,0
454154,0.5702693,0.5702693,0
454156,0.569239,0.569239,0
454159,0.569239,0.569239,0
454161,0.5688952,0.5688952,0
454164,0.5682068,0.5682068,0
454166,0.5682068,0.5682068,0
454169,0.5675176,0.5675176,0
454171,0.5664824,0.5668277,0.02797646
454174,0.5664824,0.5668277,0.02797646
454176,0.5654452,0.5657911,0.02797646
454179,0.5654452,0.5657911,0.02797646
454181,0.5654452,0.5654452,0
454184,0.5654452,0.5654452,0
454187,0.5654452,0.5654452,0
454190,0.5654452,0.5654452,0
454192,0.5647526,0.5650989,0
454195,0.5647526,0.5650989,0
454197,0.564406,0.5650989,0
454200,0.564406,0.5650989,0
454202,0.5630175,0.5630175,0
454205,0.5630175,0.563365,0
454207,0.5630175,0.563365,0
454210,0.563365,0.5637122,0
454212,0.563365,0.5640592,0
454215,0.563365,0.5640592,0
454217,0.5612772,0.5623221,0
454220,0.5612772,0.5623221,0
454222,0.5605795,0.5612772,0.02797646
454225,0.5605795,0.5609285,0.02797646
454227,0.5605795,0.5609285,0.02797646
454230,0.5602303,0.5605795,0.02797646
454233,0.5602303,0.5605795,0.02797646
454235,0.5602303,0.5602303,0.02797646
454238,0.5598809,0.5595313,0
454240,0.5598809,0.5595313,0
454243,0.5588315,0.5588315,0.02797646
454245,0.5584812,0.5584812,0.02797646
454248,0.5584812,0.5584812,0.02797646
454250,0.5591815,0.5591815,0
454253,0.5591815,0.5591815,0
454255,0.5595313,0.5598809,0.02797646
454258,0.5584812,0.5584812,0
454260,0.5584812,0.5584812,0
454263,0.5591815,0.5595313,0.02797646
454265,0.5602303,0.5612772,0
454268,0.5602303,0.5612772,0
454270,0.5616257,0.5623221,0
454274,0.5616257,0.5623221,0
454276,0.5616257,0.5623221,0.02797646
454279,0.5612772,0.5619739,0
454281,0.5612772,0.5619739,0
454284,0.5605795,0.5612772,0.02797646
454286,0.5598809,0.5598809,0
454289,0.5598809,0.5598809,0
454291,0.5609285,0.5612772,0
454294,0.5609285,0.5612772,0
454296,0.5626699,0.5630175,0
454299,0.5640592,0.564406,0.02797646
454301,0.5640592,0.564406,0.02797646
454304,0.5657911,0.5661368,0
454306,0.5675176,0.5682068,0
454309,0.5675176,0.5682068,0
454311,0.5682068,0.5682068,0
454315,0.5682068,0.5682068,0
454317,0.5709552,0.5709552,0
454320,0.5716401,0.5716401,0.01978234
454322,0.5716401,0.5716401,0.01978234
454325,0.5726661,0.5733491,0
454327,0.5730078,0.5736903,0
454330,0.5730078,0.5736903,0
454332,0.5733491,0.5736903,0
454335,0.5733491,0.5736903,0
454337,0.5733491,0.5733491,0
454340,0.5716401,0.5719823,0
454342,0.5716401,0.5719823,0
454345,0.5699261,0.5702693,0
454347,0.5688952,0.5688952,0
454350,0.5688952,0.5688952,0
454352,0.5678623,0.5685511,0
454355,0.5678623,0.5685511,0
454358,0.5675176,0.5678623,0
454360,0.5671728,0.5675176,0
454363,0.5671728,0.5675176,0
454365,0.5654452,0.5654452,0
454368,0.5654452,0.5654452,0
454370,0.5647526,0.5650989,0
454373,0.5657911,0.5661368,0.02797646
454375,0.5657911,0.5661368,0.02797646
454378,0.5668277,0.5671728,0.02797646
454380,0.5671728,0.5675176,0.02797646
454383,0.5671728,0.5675176,0.02797646
454385,0.5664824,0.5668277,0.02797646
454388,0.5664824,0.5668277,0.02797646
454390,0.5668277,0.5675176,0
454393,0.5678623,0.5678623,0.02797646
454395,0.5678623,0.5678623,0.02797646
454398,0.5699261,0.5702693,0
454401,0.5726661,0.5730078,0
454404,0.5726661,0.5730078,0
454406,0.5730078,0.5736903,0.02797646
454409,0.5730078,0.5736903,0.02797646
454411,0.5747126,0.575053,0.02797646
454414,0.5743721,0.5747126,0
454416,0.5743721,0.5747126,0
454419,0.5740312,0.5740312,0.02797646
454421,0.5733491,0.5736903,0.02797646
454424,0.5733491,0.5736903,0.02797646
454426,0.5733491,0.5736903,0.02797646
454429,0.5733491,0.5736903,0.02797646
454431,0.5723243,0.5726661,0.02797646
454434,0.5706123,0.5709552,0.02797646
454436,0.5706123,0.5709552,0.02797646
454439,0.5709552,0.5712977,0.02797646
454441,0.5716401,0.5716401,0
454445,0.5716401,0.5716401,0
454447,0.5712977,0.5719823,0.02797646
454450,0.5712977,0.5719823,0.02797646
454452,0.5716401,0.5723243,0.02797646
454455,0.5719823,0.5723243,0
454457,0.5719823,0.5723243,0
454460,0.5736903,0.5743721,0
454462,0.5747126,0.575053,0.02797646
454465,0.5747126,0.575053,0.02797646
454467,0.575053,0.575053,0
454470,0.575053,0.575053,0
454472,0.575053,0.5747126,0.02797646
454475,0.5747126,0.575053,0
454477,0.5747126,0.575053,0
454480,0.5743721,0.5747126,0
454482,0.5743721,0.5747126,0.02797646
454486,0.5743721,0.5747126,0.02797646
454488,0.5743721,0.5743721,0
454490,0.5743721,0.5743721,0
454493,0.5730078,0.5733491,0.02797646
454495,0.5712977,0.5719823,0
454498,0.5712977,0.5719823,0
454500,0.5716401,0.5712977,0
454503,0.5716401,0.5712977,0
454505,0.5712977,0.5716401,0.02797646
454508,0.5730078,0.5740312,0
454510,0.5730078,0.5740312,0
454513,0.5740312,0.5743721,0
454515,0.57743,0.5781073,0
454518,0.57743,0.5781073,0
454520,0.5791218,0.5797972,0.02797646
454523,0.5791218,0.5797972,0.02797646
454525,0.5801346,0.5804718,0
454529,0.5804718,0.5808088,0
454531,0.5804718,0.5808088,0.02797646
454534,0.5808088,0.5814822,0
454536,0.5818186,0.5821548,0
454539,0.5818186,0.5821548,0
454541,0.5828267,0.5828267,0.02797646
454544,0.5828267,0.5828267,0.02797646
454546,0.5821548,0.5824909,0.02797646
454549,0.5808088,0.5814822,0
454551,0.5808088,0.5814822,0
454554,0.5801346,0.5808088,0
454556,0.5801346,0.5804718,0
454559,0.5801346,0.5804718,0
454561,0.5804718,0.5808088,0
454564,0.5804718,0.5808088,0
454566,0.5784457,0.5791218,0
454569,0.5777687,0.5784457,0.02797646
454572,0.5777687,0.5784457,0.02797646
454575,0.57743,0.5777687,0
454577,0.5784457,0.5794597,0
454580,0.5784457,0.5794597,0
454582,0.5777687,0.57743,0
454585,0.5777687,0.57743,0
454587,0.577091,0.577091,0
454590,0.577091,0.5781073,0.02797646
454592,0.577091,0.5781073,0.02797646
454595,0.57743,0.57743,0.02797646
454597,0.5777687,0.5781073,0.02797646
454600,0.5777687,0.5781073,0.02797646
454602,0.5781073,0.5791218,0.02797646
454605,0.5781073,0.5791218,0.02797646
454607,0.5781073,0.5787839,0.03956468
454610,0.5777687,0.5784457,0.02797646
454612,0.5777687,0.5784457,0.02797646
454616,0.57743,0.5777687,0.02797646
454618,0.5767518,0.57743,0.03956468
454620,0.5767518,0.57743,0.03956468
454623,0.577091,0.5777687,0.03956468
454625,0.577091,0.5777687,0.03956468
454628,0.5777687,0.5777687,0.03956468
454630,0.57743,0.57743,0.03956468
454633,0.57743,0.57743,0.03956468
454635,0.5767518,0.57743,0.03956468
454638,0.57743,0.5777687,0.02797646
454640,0.57743,0.5777687,0.02797646
454643,0.5781073,0.5784457,0.03956468
454645,0.5781073,0.5784457,0.03956468
454648,0.5781073,0.5787839,0.02797646
454650,0.5787839,0.5787839,0.03956468
454653,0.5787839,0.5787839,0.03956468
454656,0.5787839,0.5791218,0.02797646
454659,0.5787839,0.5791218,0.02797646
454661,0.5781073,0.5784457,0.03956468
454664,0.5781073,0.5784457,0.03956468
454666,0.5781073,0.5784457,0.03956468
454669,0.5787839,0.5784457,0.02797646
454671,0.5784457,0.5784457,0.03956468
454674,0.5784457,0.5784457,0.03956468
454676,0.5781073,0.5784457,0.03956468
454679,0.5781073,0.5784457,0.03956468
454681,0.5764125,0.577091,0.03956468
454684,0.5753932,0.5757331,0.03956468
454686,0.5753932,0.5757331,0.03956468
454689,0.5733491,0.5736903,0.02797646
454691,0.5726661,0.5730078,0.03956468
454694,0.5726661,0.5730078,0.03956468
454696,0.5730078,0.5733491,0.03956468
454700,0.5730078,0.5733491,0.03956468
454702,0.5736903,0.5740312,0.03426402
454705,0.5740312,0.5747126,0.03956468
454707,0.5740312,0.5747126,0.03956468
454710,0.5743721,0.5747126,0.03426402
454712,0.5747126,0.575053,0.03956468
454715,0.5747126,0.575053,0.03956468
454717,0.5753932,0.5757331,0.04423466
454720,0.5753932,0.5757331,0.04423466
454722,0.5767518,0.5764125,0.03956468
454725,0.5767518,0.577091,0.03426402
454727,0.5767518,0.577091,0.03426402
454730,0.577091,0.577091,0.03426402
454732,0.5791218,0.5791218,0.03426402
454735,0.5791218,0.5791218,0.03426402
454737,0.5794597,0.5797972,0.04423466
454740,0.5794597,0.5797972,0.04423466
454743,0.5821548,0.5828267,0.03956468
454746,0.5834977,0.583833,0.03956468
454748,0.5834977,0.583833,0.03956468
454750,0.5841681,0.5841681,0.03426402
454753,0.5841681,0.5848376,0.03956468
454755,0.5841681,0.5848376,0.03956468
454758,0.5834977,0.583833,0.03956468
454760,0.5834977,0.583833,0.03956468
454763,0.5818186,0.5821548,0.03956468
454765,0.5814822,0.5821548,0.03426402
454768,0.5814822,0.5821548,0.03426402
454770,0.5804718,0.5808088,0.03426402
454773,0.5804718,0.5808088,0.03426402
454775,0.5804718,0.5808088,0.03426402
454778,0.5804718,0.5808088,0.04423466
454780,0.5804718,0.5808088,0.04423466
454784,0.5791218,0.5794597,0.03956468
454786,0.5781073,0.5781073,0.04423466
454789,0.5781073,0.5781073,0.04423466
454791,0.5757331,0.5760729,0.03956468
454794,0.5757331,0.5760729,0.03956468
454796,0.575053,0.5753932,0.02797646
454799,0.5753932,0.575053,0.03956468
454801,0.5753932,0.575053,0.03956468
454804,0.575053,0.575053,0.04423466
454806,0.5747126,0.575053,0.03956468
454809,0.5747126,0.575053,0.03956468
454811,0.5747126,0.5747126,0.03956468
454814,0.5747126,0.5747126,0.03956468
454816,0.5747126,0.5743721,0.03956468
454819,0.5740312,0.5740312,0.03956468
454821,0.5740312,0.5740312,0.03956468
454824,0.5726661,0.5733491,0.03956468
454827,0.5712977,0.5716401,0.03956468
454830,0.5712977,0.5716401,0.03956468
454832,0.5702693,0.5702693,0.03956468
454835,0.5695826,0.569239,0.03956468
454837,0.5688952,0.5685511,0.04845664
454840,0.5675176,0.5671728,0.03956468
454842,0.5675176,0.5671728,0.03956468
454845,0.5661368,0.5657911,0.03956468
454847,0.5650989,0.5650989,0.03956468
454850,0.5650989,0.5650989,0.03956468
454852,0.5647526,0.564406,0.03956468
454855,0.5647526,0.564406,0.03956468
454857,0.5647526,0.5647526,0.03956468
454860,0.5654452,0.5654452,0.03956468
454862,0.5654452,0.5654452,0.03956468
454865,0.5654452,0.5650989,0.03956468
454867,0.5650989,0.5647526,0.03956468
454871,0.5650989,0.5647526,0.03956468
454873,0.563365,0.5640592,0.02797646
454876,0.563365,0.5640592,0.02797646
454878,0.5630175,0.5630175,0.03956468
454880,0.5619739,0.5623221,0.02797646
454883,0.5619739,0.5623221,0.02797646
454885,0.5619739,0.5623221,0.02797646
454888,0.5630175,0.5630175,0.03956468
454890,0.5630175,0.5630175,0.03956468
454893,0.5640592,0.5637122,0.03956468
454895,0.5640592,0.5637122,0.03956468
454898,0.5657911,0.5657911,0.03956468
454900,0.5682068,0.5682068,0.03956468
454903,0.5682068,0.5682068,0.03956468
454905,0.5706123,0.5706123,0.03956468
454908,0.5723243,0.5719823,0.03426402
454910,0.5723243,0.5719823,0.03426402
454914,0.5726661,0.5723243,0.03426402
454916,0.5726661,0.5723243,0.03426402
454919,0.5730078,0.5726661,0.03426402
454921,0.5740312,0.5736903,0.03426402
454924,0.5740312,0.5736903,0.03426402
454926,0.5740312,0.5736903,0.03426402
454929,0.5740312,0.5736903,0.03426402
454931,0.5747126,0.5743721,0.03426402
454934,0.5824909,0.5824909,0.02797646
454936,0.5824909,0.5824909,0.02797646
454939,0.5865081,0.5868416,0.03426402
454941,0.5921526,0.5928131,0.02797646
454944,0.5921526,0.5928131,0.02797646
454946,0.5964329,0.5970887,0.02797646
454949,0.5964329,0.5970887,0.02797646
454951,0.6000308,0.6003569,0.02797646
454955,0.6000308,0.6003569,0.02797646
454957,0.6000308,0.6003569,0.02797646
454960,0.6000308,0.6003569,0.02797646
454962,0.6036074,0.6042554,0
454965,0.6036074,0.6042554,0
454967,0.6100564,0.6103771,0
454970,0.6100564,0.6103771,0
454972,0.618656,0.6192883,0.01978234
454975,0.6265134,0.6271377,0
454977,0.6265134,0.6271377,0
454980,0.6422443,0.6425489,0
454982,0.6498165,0.6501176,0
454985,0.6498165,0.6501176,0
454987,0.6626383,0.6632286,0.01978234
454990,0.6626383,0.6632286,0.01978234
454992,0.6682253,0.6685182,0
454995,0.6726035,0.6734757,0
454998,0.6726035,0.6734757,0
455001,0.6763749,0.6769533,0
455003,0.6775311,0.6781085,0.01978234
455006,0.6775311,0.6781085,0.01978234
455008,0.6734757,0.6740565,0.01978234
455011,0.6734757,0.6740565,0.01978234
455013,0.6720214,0.6723125,0
455015,0.6688108,0.6691033,0.02797646
455018,0.6688108,0.6691033,0.02797646
455020,0.6673463,0.6676395,0.01978234
455023,0.6620474,0.6626383,0.02797646
455025,0.6620474,0.6626383,0.02797646
455028,0.6602717,0.6608641,0.02797646
455030,0.6602717,0.6608641,0.02797646
455033,0.6561096,0.6564078,0.03426402
455035,0.6498165,0.6507192,0.02797646
455038,0.6498165,0.6507192,0.02797646
455041,0.645587,0.646193,0.03426402
455044,0.6394964,0.6394964,0.03426402
455046,0.6394964,0.6394964,0.03426402
455049,0.6333472,0.633656,0.03956468
455051,0.6333472,0.633656,0.03956468
455054,0.6293179,0.629007,0.03426402
455056,0.6196041,0.6192883,0.03426402
455059,0.6196041,0.6192883,0.03426402
455061,0.6158028,0.615485,0.03956468
455064,0.6158028,0.615485,0.03956468
455066,0.6065179,0.6068404,0.03956468
455069,0.6032831,0.6036074,0.03956468
455071,0.6032831,0.6036074,0.03956468
455074,0.5983981,0.5983981,0.03956468
455076,0.5964329,0.5967609,0.03956468
455079,0.5964329,0.5967609,0.03956468
455081,0.5931431,0.5934729,0.03426402
455085,0.5931431,0.5934729,0.03426402
455087,0.5921526,0.5924829,0.02797646
455090,0.589503,0.5901666,0.02797646
455092,0.589503,0.5901666,0.02797646
455095,0.5855064,0.5855064,0.03426402
455097,0.583833,0.5845029,0.02797646
455100,0.583833,0.5845029,0.02797646
455102,0.5828267,0.5831623,0.02797646
455105,0.5828267,0.5831623,0.02797646
455107,0.5811456,0.5814822,0.02797646
455110,0.5808088,0.5811456,0.02797646
455112,0.5808088,0.5811456,0.02797646
455115,0.5797972,0.5797972,0.02797646
455117,0.5784457,0.5791218,0.02797646
455120,0.5784457,0.5791218,0.02797646
455122,0.5797972,0.5801346,0.02797646
455126,0.5797972,0.5801346,0.02797646
455128,0.5801346,0.5808088,0
455131,0.5821548,0.5821548,0
455133,0.5821548,0.5821548,0
455136,0.5824909,0.5831623,0
455138,0.5848376,0.5858405,0
455141,0.5848376,0.5858405,0
455143,0.5888388,0.5888388,0.02797646
455145,0.5888388,0.5888388,0.02797646
455148,0.5901666,0.5901666,0
455150,0.5911604,0.5908293,0
455153,0.5911604,0.5908293,0
455155,0.5921526,0.5921526,0
455158,0.5921526,0.5924829,0
455160,0.5921526,0.5924829,0
455163,0.5924829,0.5928131,0.02797646
455165,0.5924829,0.5928131,0.02797646
455169,0.5931431,0.5931431,0.01978234
455171,0.5931431,0.5938025,0
455174,0.5931431,0.5938025,0
455176,0.5934729,0.5934729,0
455179,0.5934729,0.5938025,0
455181,0.5934729,0.5938025,0
455184,0.5934729,0.5941319,0
455186,0.5934729,0.5941319,0
455189,0.5934729,0.5934729,0
455191,0.5928131,0.5931431,0.02797646
455194,0.5928131,0.5931431,0.02797646
455196,0.5928131,0.5931431,0
455199,0.5928131,0.5931431,0
455201,0.5931431,0.5934729,0
455204,0.5941319,0.5944612,0
455206,0.5941319,0.5944612,0
455209,0.5938025,0.5947903,0
455212,0.5944612,0.5944612,0.02797646
455215,0.5944612,0.5944612,0.02797646
455217,0.5954478,0.5954478,0.01978234
455220,0.5954478,0.5954478,0.01978234
455222,0.5957764,0.5957764,0.01978234
455225,0.5931431,0.5931431,0.01978234
455227,0.5931431,0.5931431,0.01978234
455230,0.5908293,0.590498,0.02797646
455232,0.5865081,0.5868416,0.02797646
455235,0.5865081,0.5868416,0.02797646
455237,0.5851721,0.5851721,0.02797646
455240,0.5851721,0.5851721,0.02797646
455242,0.5851721,0.5851721,0.03426402
455245,0.5845029,0.5851721,0.03426402
455247,0.5845029,0.5851721,0.03426402
455250,0.5848376,0.5851721,0.03956468
455252,0.5855064,0.5861744,0.03426402
455256,0.5855064,0.5861744,0.03426402
455258,0.5858405,0.5858405,0.03426402
455261,0.5858405,0.5858405,0.03426402
455263,0.5865081,0.5865081,0.03956468
455266,0.5858405,0.5858405,0.03956468
455268,0.5858405,0.5858405,0.03956468
455271,0.5858405,0.5858405,0.04423466
455273,0.5875081,0.5868416,0.04423466
455275,0.5875081,0.5868416,0.04423466
455278,0.5878411,0.5875081,0.04423466
455280,0.5878411,0.5875081,0.04423466
455283,0.5865081,0.5865081,0.03426402
455285,0.5858405,0.5865081,0.03426402
455288,0.5858405,0.5865081,0.03426402
455290,0.5848376,0.5848376,0.03956468
455293,0.5848376,0.5845029,0.03956468
455296,0.5848376,0.5845029,0.03956468
455299,0.5851721,0.5851721,0.03956468
455301,0.5851721,0.5851721,0.03956468
455304,0.5855064,0.5855064,0.04423466
455306,0.5855064,0.5851721,0.02797646
455309,0.5855064,0.5851721,0.02797646
455311,0.5858405,0.5858405,0.03956468
455314,0.5865081,0.5865081,0.03956468
455316,0.5865081,0.5865081,0.03956468
455319,0.5865081,0.5865081,0.02797646
455321,0.5865081,0.5865081,0.02797646
455324,0.587175,0.5875081,0.03956468
455326,0.5875081,0.5868416,0.04423466
455329,0.5875081,0.5868416,0.04423466
455331,0.5865081,0.5861744,0.03426402
455334,0.5865081,0.5861744,0.03426402
455336,0.5858405,0.5858405,0.03956468
455340,0.5851721,0.5855064,0.03426402
455342,0.5851721,0.5855064,0.03426402
455345,0.5848376,0.5855064,0.03426402
455347,0.583833,0.5841681,0.03956468
455350,0.5828267,0.5828267,0.03956468
455352,0.5821548,0.5821548,0.03426402
455355,0.5821548,0.5821548,0.03426402
455357,0.5821548,0.5821548,0.04423466
455360,0.5824909,0.5821548,0.03426402
455362,0.5824909,0.5821548,0.03426402
455365,0.5828267,0.5828267,0.03426402
455367,0.5834977,0.5834977,0.03956468
455370,0.5834977,0.5834977,0.03956468
455372,0.5828267,0.5831623,0.03426402
455375,0.5828267,0.5831623,0.03426402
455377,0.5824909,0.5824909,0.03956468
455380,0.5821548,0.5818186,0.03956468
455383,0.5821548,0.5818186,0.03956468
455386,0.5818186,0.5818186,0.03426402
455388,0.5828267,0.5828267,0.02797646
455391,0.5828267,0.5828267,0.02797646
455393,0.583833,0.5841681,0.02797646
455396,0.583833,0.5841681,0.02797646
455398,0.5845029,0.5848376,0.03956468
455401,0.5841681,0.5845029,0.03956468
455403,0.5841681,0.5845029,0.03956468
455405,0.5851721,0.5851721,0.03956468
455408,0.5848376,0.5848376,0.02797646
455410,0.5855064,0.5858405,0.03956468
455413,0.5855064,0.5861744,0.02797646
455415,0.5855064,0.5861744,0.02797646
455418,0.5861744,0.5865081,0.02797646
455420,0.5875081,0.5881739,0.02797646
455424,0.5875081,0.5881739,0.02797646
455426,0.5888388,0.5888388,0.02797646
455429,0.590498,0.5908293,0.02797646
455431,0.590498,0.5908293,0.02797646
455434,0.5921526,0.5921526,0.02797646
455436,0.5921526,0.5921526,0.02797646
455439,0.5924829,0.5931431,0
455441,0.5924829,0.5928131,0.02797646
455444,0.5924829,0.5928131,0.02797646
455446,0.591822,0.591822,0.02797646
455449,0.5914913,0.5914913,0.02797646
455451,0.5914913,0.5914913,0.02797646
455454,0.5908293,0.5914913,0.02797646
455456,0.5908293,0.5914913,0.02797646
455459,0.5901666,0.590498,0.02797646
455461,0.5898349,0.590498,0.02797646
455464,0.5898349,0.590498,0.02797646
455467,0.5888388,0.5891711,0.02797646
455470,0.5888388,0.5891711,0.02797646
455472,0.5885065,0.5885065,0.02797646
455475,0.5858405,0.5861744,0.03426402
455477,0.5858405,0.5861744,0.03426402
455480,0.5851721,0.5858405,0.03956468
455482,0.5851721,0.5855064,0.03956468
455485,0.5851721,0.5855064,0.03956468
455487,0.5855064,0.5855064,0.02797646
455490,0.5855064,0.5855064,0.02797646
455492,0.5851721,0.5855064,0
455495,0.5851721,0.5861744,0.02797646
455497,0.5851721,0.5861744,0.02797646
455500,0.5858405,0.5861744,0.02797646
455502,0.5855064,0.5858405,0.02797646
455505,0.5855064,0.5858405,0.02797646
455507,0.5841681,0.5841681,0.02797646
455511,0.5841681,0.5841681,0.02797646
455513,0.5834977,0.583833,0.02797646
455516,0.5834977,0.5831623,0.02797646
455518,0.5834977,0.5831623,0.02797646
455521,0.5834977,0.5831623,0
455523,0.5845029,0.5851721,0.02797646
455526,0.5845029,0.5851721,0.02797646
455528,0.5851721,0.5858405,0.02797646
455531,0.5851721,0.5858405,0.02797646
455533,0.5861744,0.5861744,0.02797646
455535,0.5865081,0.5865081,0.02797646
455538,0.5865081,0.5865081,0.02797646
455540,0.5868416,0.5868416,0.03956468
455543,0.5868416,0.5868416,0.03426402
455545,0.5868416,0.5868416,0.03426402
455548,0.5868416,0.587175,0.03426402
455550,0.5868416,0.587175,0.03426402
455554,0.5868416,0.587175,0.03426402
455556,0.587175,0.5875081,0.02797646
455559,0.587175,0.5875081,0.02797646
455561,0.5875081,0.5878411,0.02797646
455564,0.590498,0.5908293,0.02797646
455566,0.590498,0.5908293,0.02797646
455569,0.5921526,0.591822,0.02797646
455571,0.5921526,0.591822,0.02797646
455574,0.5928131,0.5928131,0
455576,0.5941319,0.5941319,0.02797646
455579,0.5941319,0.5941319,0.02797646
455581,0.5961047,0.5957764,0.02797646
455584,0.598071,0.598071,0.02797646
455586,0.598071,0.598071,0.02797646
455589,0.5983981,0.5983981,0
455591,0.5983981,0.5983981,0
455595,0.5983981,0.598725,0.02797646
455597,0.5997046,0.5997046,0.02797646
455600,0.5997046,0.5997046,0.02797646
455602,0.6006827,0.6006827,0.02797646
455605,0.6026341,0.6029587,0.02797646
455607,0.6026341,0.6029587,0.02797646
455610,0.6026341,0.6036074,0
455612,0.6026341,0.6036074,0
455615,0.6032831,0.6042554,0
455617,0.6036074,0.6039315,0.02797646
455620,0.6036074,0.6039315,0.02797646
455622,0.6019843,0.6026341,0
455625,0.6019843,0.6026341,0
455627,0.6006827,0.6013339,0
455630,0.5997046,0.6003569,0.02797646
455632,0.5997046,0.6003569,0.02797646
455635,0.5983981,0.5993783,0
455638,0.598725,0.598725,0.02797646
455641,0.598725,0.598725,0.02797646
455643,0.5974163,0.598071,0
455646,0.5974163,0.598071,0
455648,0.5970887,0.5970887,0
455651,0.598071,0.5983981,0.02797646
455653,0.598071,0.5983981,0.02797646
455656,0.5990517,0.5990517,0.02797646
455658,0.5990517,0.5993783,0.02797646
455661,0.5990517,0.5993783,0.02797646
455663,0.598725,0.5993783,0.02797646
455665,0.598725,0.5993783,0.02797646
455668,0.5997046,0.5997046,0.02797646
455670,0.598725,0.5993783,0
455673,0.598725,0.5993783,0
455675,0.598725,0.5990517,0.02797646
455678,0.5990517,0.5990517,0.02797646
455681,0.5990517,0.5990517,0.02797646
455684,0.5983981,0.598725,0
455686,0.5983981,0.598725,0
455689,0.5983981,0.5983981,0.02797646
455691,0.5974163,0.5974163,0
455694,0.5974163,0.5974163,0
455696,0.5967609,0.5967609,0
455699,0.5957764,0.5961047,0
455701,0.5957764,0.5961047,0
455704,0.5954478,0.5957764,0
455706,0.5954478,0.5957764,0
455709,0.5947903,0.5954478,0
455711,0.5954478,0.5961047,0
455714,0.5954478,0.5961047,0
455716,0.5967609,0.5970887,0
455719,0.5974163,0.5977437,0.02797646
455721,0.5974163,0.5977437,0.02797646
455725,0.5961047,0.5964329,0.02797646
455727,0.5961047,0.5964329,0.02797646
455730,0.5957764,0.5957764,0.02797646
455732,0.5990517,0.5990517,0.02797646
455735,0.5990517,0.5990517,0.02797646
455737,0.6000308,0.6003569,0.02797646
455740,0.6055493,0.6058724,0.02797646
455742,0.6055493,0.6058724,0.02797646
455745,0.6074851,0.6074851,0
455747,0.6074851,0.6074851,0
455750,0.6110179,0.6119779,0
455752,0.6167554,0.6167554,0.02797646
455755,0.6167554,0.6167554,0.02797646
455757,0.6177064,0.6180231,0.02797646
455760,0.6177064,0.6180231,0.02797646
455762,0.6205508,0.6211812,0.02797646
455766,0.6221254,0.6224399,0.02797646
455768,0.6221254,0.6224399,0.02797646
455771,0.6230683,0.6236961,0.02797646
455773,0.6258884,0.6265134,0.02797646
455776,0.6258884,0.6265134,0.02797646
455778,0.6274496,0.6277614,0.02797646
455781,0.6274496,0.6277614,0.02797646
455783,0.6243232,0.6249498,0
455786,0.6236961,0.6240098,0.02797646
455788,0.6236961,0.6240098,0.02797646
455791,0.6265134,0.6265134,0.03956468
455793,0.6277614,0.6274496,0.02797646
455795,0.6277614,0.6274496,0.02797646
455798,0.6252628,0.6252628,0.02797646
455800,0.6252628,0.6252628,0.02797646
455803,0.6224399,0.6224399,0
455805,0.6199199,0.6196041,0
455809,0.6199199,0.6196041,0
455811,0.6177064,0.6180231,0.02797646
455814,0.616438,0.616438,0.02797646
455816,0.616438,0.616438,0.02797646
455819,0.6145305,0.6145305,0.02797646
455821,0.6145305,0.6145305,0.02797646
455824,0.6122975,0.6122975,0.01978234
455826,0.6106976,0.6106976,0.01978234
455829,0.6106976,0.6106976,0.01978234
455831,0.6094146,0.6090934,0.01978234
455834,0.6058724,0.6058724,0.02797646
455836,0.6058724,0.6058724,0.02797646
455839,0.6013339,0.6019843,0
455841,0.6013339,0.6019843,0
455844,0.6003569,0.6006827,0.02797646
455846,0.5990517,0.5990517,0.02797646
455849,0.5990517,0.5983981,0.02797646
455852,0.598071,0.598071,0
455855,0.5964329,0.5967609,0.02797646
455857,0.5964329,0.5967609,0.02797646
455860,0.5947903,0.5951191,0
455862,0.5947903,0.5951191,0
455865,0.5941319,0.5944612,0
455867,0.5944612,0.5947903,0.02797646
455870,0.5944612,0.5947903,0.02797646
455872,0.5934729,0.5938025,0
455875,0.5928131,0.5934729,0
455877,0.5928131,0.5934729,0
455880,0.5911604,0.5911604,0.02797646
455882,0.5911604,0.5911604,0.02797646
455885,0.589503,0.589503,0.02797646
455887,0.5881739,0.5881739,0.02797646
455890,0.5881739,0.5881739,0.02797646
455892,0.5901666,0.590498,0.02797646
455896,0.5901666,0.590498,0.02797646
455898,0.5908293,0.5911604,0.02797646
455901,0.590498,0.5911604,0
455903,0.590498,0.5911604,0
455906,0.590498,0.5914913,0
455908,0.5898349,0.5901666,0.02797646
455911,0.5898349,0.5901666,0.02797646
455913,0.5891711,0.5888388,0
455916,0.5891711,0.5888388,0
455918,0.5885065,0.5891711,0
455921,0.5878411,0.5881739,0
455923,0.5878411,0.5881739,0
455925,0.5868416,0.5868416,0
455928,0.5861744,0.5861744,0
455930,0.5861744,0.5861744,0
455933,0.5851721,0.5851721,0
455936,0.5851721,0.5851721,0
455939,0.5845029,0.5848376,0.02797646
455941,0.5861744,0.5865081,0.02797646
455944,0.5861744,0.5865081,0.02797646
455946,0.5865081,0.587175,0
455949,0.5878411,0.5888388,0
455951,0.5878411,0.5888388,0
455954,0.5901666,0.590498,0.02797646
455956,0.5901666,0.590498,0.02797646
455959,0.591822,0.5921526,0.02797646
455961,0.5941319,0.5941319,0.02797646
455964,0.5941319,0.5941319,0.02797646
455966,0.5997046,0.6000308,0
455969,0.6016592,0.6023093,0
455971,0.6016592,0.6023093,0
455974,0.6032831,0.6029587,0.02797646
455976,0.6032831,0.6029587,0.02797646
455980,0.605226,0.605226,0
455982,0.6042554,0.6042554,0
455985,0.6042554,0.6042554,0
455987,0.6042554,0.6042554,0
455990,0.6042554,0.6042554,0
455992,0.6042554,0.6042554,0
455995,0.6042554,0.6042554,0
455997,0.6042554,0.6042554,0
456000,0.6058724,0.6065179,0
456002,0.6068404,0.6068404,0
456005,0.6068404,0.6068404,0
456007,0.6116581,0.6119779,0.02797646
456010,0.6132555,0.6135744,0.02797646
456012,0.6132555,0.6135744,0.02797646
456015,0.615485,0.6158028,0
456017,0.615485,0.6158028,0
456020,0.6161205,0.6167554,0.02797646
456023,0.6180231,0.6183397,0
456026,0.6180231,0.6183397,0
456028,0.6189722,0.618656,0.02797646
456031,0.6189722,0.618656,0.02797646
456033,0.6199199,0.6205508,0
456036,0.6202354,0.6208661,0
456038,0.6202354,0.6208661,0
456041,0.6196041,0.6199199,0
456043,0.6196041,0.6192883,0.02797646
456046,0.6196041,0.6192883,0.02797646
456048,0.6183397,0.618656,0.02797646
456051,0.6183397,0.618656,0.02797646
456053,0.616438,0.6167554,0
456055,0.6148488,0.615167,0.02797646
456058,0.6148488,0.615167,0.02797646
456060,0.6119779,0.6119779,0.02797646
456064,0.6119779,0.6113381,0.02797646
456066,0.6119779,0.6113381,0.02797646
456069,0.6106976,0.6113381,0
456071,0.6106976,0.6113381,0
456074,0.6106976,0.6106976,0.02797646
456076,0.6103771,0.6110179,0.01978234
456079,0.6103771,0.6110179,0.01978234
456081,0.6106976,0.6110179,0.01978234
456084,0.6110179,0.6110179,0.02797646
456086,0.6110179,0.6110179,0.02797646
456089,0.6100564,0.6100564,0.02797646
456091,0.6100564,0.6100564,0.02797646
456094,0.608772,0.608772,0.02797646
456096,0.6081289,0.6081289,0.01978234
456099,0.6081289,0.6081289,0.01978234
456101,0.6084505,0.6084505,0.02797646
456104,0.6110179,0.6110179,0.02797646
456107,0.6110179,0.6110179,0.02797646
456110,0.6132555,0.6135744,0.02797646
456112,0.6132555,0.6135744,0.02797646
456115,0.615485,0.615485,0.02797646
456117,0.6158028,0.615485,0.01978234
456120,0.6158028,0.615485,0.01978234
456122,0.6135744,0.6138933,0.02797646
456125,0.6116581,0.6119779,0.02797646
456127,0.6116581,0.6119779,0.02797646
456130,0.608772,0.6094146,0
456132,0.608772,0.6094146,0
456135,0.6084505,0.6084505,0.02797646
456137,0.605226,0.6058724,0.02797646
456140,0.605226,0.6058724,0.02797646
456142,0.6036074,0.6042554,0
456145,0.6016592,0.6019843,0.02797646
456147,0.6016592,0.6019843,0.02797646
456151,0.6013339,0.6016592,0.02797646
456153,0.6013339,0.6016592,0.02797646
456156,0.5990517,0.5990517,0.01978234
456158,0.5974163,0.5970887,0.02797646
456161,0.5974163,0.5970887,0.02797646
456163,0.5944612,0.5947903,0.02797646
456166,0.5944612,0.5947903,0.02797646
456168,0.5934729,0.5934729,0.02797646
456171,0.5911604,0.5911604,0.02797646
456173,0.5911604,0.5911604,0.02797646
456176,0.5901666,0.5901666,0.02797646
456178,0.5901666,0.5901666,0.02797646
456181,0.5901666,0.5901666,0.02797646
456183,0.590498,0.5908293,0.02797646
456185,0.590498,0.5908293,0.02797646
456188,0.590498,0.5914913,0.02797646
456190,0.5911604,0.5911604,0.02797646
456194,0.5911604,0.5911604,0.02797646
456196,0.5891711,0.589503,0
456199,0.5881739,0.5888388,0.02797646
456201,0.5881739,0.5888388,0.02797646
456204,0.587175,0.5875081,0
456206,0.587175,0.5875081,0
456209,0.5861744,0.5868416,0
456211,0.5851721,0.5848376,0.02797646
456214,0.5851721,0.5848376,0.02797646
456216,0.5848376,0.5845029,0.02797646
456219,0.583833,0.5841681,0.02797646
456221,0.583833,0.5841681,0.02797646
456224,0.583833,0.5845029,0.02797646
456226,0.583833,0.5845029,0.02797646
456229,0.5845029,0.5841681,0.02797646
456231,0.5841681,0.583833,0.02797646
456235,0.5841681,0.583833,0.02797646
456237,0.5834977,0.5841681,0
456240,0.5834977,0.5845029,0
456242,0.5834977,0.5845029,0
456245,0.583833,0.5845029,0.02797646
456247,0.583833,0.5845029,0.02797646
456250,0.5848376,0.5848376,0.02797646
456252,0.5851721,0.5855064,0
456255,0.5851721,0.5855064,0
456257,0.5845029,0.5845029,0.02797646
456260,0.5834977,0.5831623,0.02797646
456262,0.5834977,0.5831623,0.02797646
456265,0.5831623,0.583833,0.02797646
456267,0.5831623,0.583833,0.02797646
456270,0.583833,0.5845029,0.02797646
456272,0.5848376,0.5855064,0
456275,0.5848376,0.5855064,0
456278,0.5851721,0.5858405,0
456281,0.5868416,0.587175,0
456283,0.5868416,0.587175,0
456286,0.5875081,0.5885065,0
456288,0.5875081,0.5885065,0
456291,0.5875081,0.5881739,0.02797646
456293,0.5875081,0.5881739,0.02797646
456296,0.5875081,0.5881739,0.02797646
456298,0.5881739,0.5888388,0
456301,0.5881739,0.5888388,0
456303,0.5881739,0.5888388,0
456306,0.5901666,0.5901666,0
456308,0.5901666,0.5901666,0
456311,0.5911604,0.5911604,0.02797646
456313,0.5938025,0.5938025,0
456316,0.5938025,0.5938025,0
456318,0.5944612,0.5951191,0
456321,0.5944612,0.5951191,0
456324,0.5967609,0.5970887,0
456326,0.5974163,0.598071,0
456329,0.5974163,0.598071,0
456331,0.5977437,0.5983981,0
456334,0.5974163,0.5974163,0
456336,0.5974163,0.5974163,0
456339,0.5961047,0.5964329,0
456341,0.5961047,0.5964329,0
456344,0.5951191,0.5957764,0
456346,0.5944612,0.5951191,0
456349,0.5944612,0.5951191,0
456351,0.5944612,0.5951191,0
456354,0.5951191,0.5957764,0
456356,0.5951191,0.5957764,0
456359,0.5957764,0.5957764,0.02797646
456361,0.5957764,0.5957764,0.02797646
456365,0.5961047,0.5964329,0
456367,0.5961047,0.5961047,0
456370,0.5961047,0.5961047,0
456372,0.5944612,0.5947903,0
456375,0.5934729,0.5938025,0
456377,0.5934729,0.5938025,0
456380,0.590498,0.590498,0.02797646
456382,0.590498,0.590498,0.02797646
456385,0.5885065,0.5888388,0.02797646
456387,0.5861744,0.5865081,0.02797646
456390,0.5861744,0.5865081,0.02797646
456392,0.5858405,0.5858405,0
456395,0.5855064,0.5858405,0
456397,0.5855064,0.5858405,0
456400,0.5861744,0.5861744,0.02797646
456402,0.5861744,0.5861744,0.02797646
456406,0.5858405,0.5865081,0.02797646
456408,0.5855064,0.5861744,0
456411,0.5855064,0.5861744,0
456413,0.5855064,0.5858405,0.02797646
456416,0.5845029,0.5855064,0.02797646
456418,0.5845029,0.5855064,0.02797646
456421,0.5845029,0.5845029,0.02797646
456423,0.5845029,0.5845029,0.02797646
456426,0.5848376,0.5845029,0.02797646
456428,0.5841681,0.5851721,0
456431,0.5841681,0.5851721,0
456433,0.5831623,0.583833,0.02797646
456436,0.5831623,0.583833,0.02797646
456438,0.5828267,0.5834977,0.02797646
456441,0.5818186,0.5821548,0.02797646
456443,0.5818186,0.5821548,0.02797646
456446,0.5808088,0.5814822,0
456449,0.5811456,0.5818186,0.02797646
456451,0.5811456,0.5818186,0.02797646
456454,0.5814822,0.5814822,0.02797646
456456,0.5814822,0.5814822,0.02797646
456459,0.5814822,0.5818186,0.02797646
456461,0.5814822,0.5818186,0.02797646
456464,0.5814822,0.5818186,0.02797646
456466,0.5831623,0.5834977,0
456469,0.5855064,0.5855064,0.02797646
456471,0.5855064,0.5855064,0.02797646
456474,0.5845029,0.5855064,0
456476,0.5845029,0.5855064,0
456479,0.5845029,0.5848376,0
456481,0.583833,0.5834977,0.02797646
456484,0.583833,0.5834977,0.02797646
456486,0.5814822,0.5818186,0
456489,0.5818186,0.5818186,0
456492,0.5818186,0.5818186,0
456495,0.5821548,0.5818186,0
456497,0.5821548,0.5818186,0
456500,0.5848376,0.5851721,0
456502,0.589503,0.5898349,0
456505,0.589503,0.5898349,0
456507,0.590498,0.5908293,0
456510,0.5911604,0.5911604,0.02797646
456512,0.5911604,0.5911604,0.02797646
456515,0.5911604,0.5914913,0
456517,0.5911604,0.5914913,0
456520,0.5911604,0.5914913,0
456522,0.5898349,0.5901666,0
456525,0.5898349,0.5901666,0
456527,0.5891711,0.5891711,0
456530,0.5881739,0.5885065,0
456532,0.5881739,0.5885065,0
456536,0.5878411,0.5885065,0.02797646
456538,0.5878411,0.5885065,0.02797646
456541,0.5878411,0.5885065,0
456543,0.5865081,0.5868416,0
456546,0.5865081,0.5868416,0
456548,0.5858405,0.5858405,0
456551,0.5858405,0.5858405,0
456553,0.5858405,0.5858405,0
456556,0.5861744,0.5858405,0.02797646
456558,0.5861744,0.5858405,0.02797646
456561,0.5865081,0.5865081,0
456563,0.587175,0.5868416,0
456566,0.587175,0.5868416,0
456568,0.587175,0.5875081,0
456571,0.587175,0.5875081,0
456573,0.587175,0.5878411,0
456577,0.5878411,0.5881739,0
456579,0.5878411,0.5881739,0
456581,0.5878411,0.5878411,0
456584,0.5875081,0.587175,0.02797646
456586,0.5875081,0.587175,0.02797646
456589,0.5875081,0.587175,0
456591,0.5875081,0.587175,0
456594,0.587175,0.5868416,0
456596,0.5885065,0.5881739,0
456599,0.5885065,0.5881739,0
456601,0.5891711,0.5891711,0
456604,0.5901666,0.5901666,0
456606,0.5901666,0.5901666,0
456609,0.591822,0.5914913,0
456611,0.591822,0.5914913,0
456614,0.5928131,0.5921526,0
456616,0.5961047,0.5954478,0
456620,0.5961047,0.5954478,0
456622,0.5983981,0.5974163,0
456625,0.5983981,0.5974163,0
456627,0.6000308,0.5990517,0
456630,0.6026341,0.6013339,0
456632,0.6026341,0.6013339,0
456635,0.6042554,0.6029587,0
456637,0.6071628,0.6058724,0
456640,0.6071628,0.6058724,0
456642,0.6100564,0.6084505,0
456645,0.6116581,0.6103771,0
456647,0.6116581,0.6103771,0
456650,0.614212,0.612617,0
456652,0.614212,0.612617,0
456655,0.616438,0.6148488,0
456657,0.6199199,0.6183397,0
456660,0.6199199,0.6183397,0
456663,0.6199199,0.6183397,0
456666,0.6224399,0.6211812,-0.02797646
456668,0.6224399,0.6211812,-0.02797646
456671,0.6249498,0.6236961,0
456673,0.6249498,0.6236961,0
456676,0.6274496,0.6262009,0
456678,0.6293179,0.6283845,0
456681,0.6293179,0.6283845,0
456683,0.6296288,0.6286958,0
456686,0.6296288,0.6286958,0
456688,0.6296288,0.6286958,0
456691,0.6296288,0.629007,0
456693,0.6296288,0.629007,0
456696,0.6243232,0.6240098,0
456698,0.6214961,0.6218109,0
456701,0.6214961,0.6218109,0
456704,0.6196041,0.6196041,0
456707,0.6170725,0.6173896,0
456709,0.6170725,0.6173896,0
456711,0.615167,0.6158028,0
456714,0.615167,0.6158028,0
456716,0.615167,0.6158028,0
456719,0.6129363,0.6132555,0
456721,0.6129363,0.6132555,0
456724,0.6110179,0.6113381,0
456726,0.6110179,0.6113381,0
456729,0.6103771,0.6110179,0.02797646
456731,0.6106976,0.6113381,0.01978234
456734,0.6106976,0.6113381,0.01978234
456736,0.6110179,0.6116581,0.01978234
456739,0.6129363,0.6138933,0.03426402
456741,0.6129363,0.6138933,0.03426402
456744,0.6138933,0.615485,0.02797646
456747,0.6138933,0.615485,0.02797646
456750,0.6214961,0.6233823,0.03956468
456752,0.6236961,0.6262009,0.03956468
456755,0.6236961,0.6262009,0.03956468
456757,0.63025,0.6339648,0.04845664
456760,0.6324196,0.6367366,0.04845664
456762,0.6324196,0.6367366,0.04845664
456765,0.640108,0.646193,0.05233916
456767,0.640108,0.646193,0.05233916
456770,0.6428534,0.6498165,0.05595291
456772,0.6477052,0.6558113,0.05934703
456775,0.6477052,0.6558113,0.05934703
456777,0.6495153,0.6587883,0.06255726
456780,0.6561096,0.6685182,0.0656106
456782,0.6561096,0.6685182,0.0656106
456785,0.6590852,0.6720214,0.07132626
456787,0.6590852,0.6720214,0.07132626
456791,0.6629335,0.6772422,0.07132626
456793,0.6685182,0.6847132,0.07661668
456796,0.6685182,0.6847132,0.07661668
456798,0.6720214,0.6901216,0.08156469
456801,0.6781085,0.6982958,0.08392937
456803,0.6781085,0.6982958,0.08392937
456806,0.6844273,0.7058211,0.08392937
456808,0.6889865,0.711894,0.08622923
456811,0.6932335,0.7170975,0.08846933
456813,0.6994157,0.7241574,0.09278741
456816,0.6994157,0.7241574,0.09278741
456818,0.7083117,0.7343537,0.09487279
456821,0.7138155,0.7407211,0.09891172
456823,0.7138155,0.7407211,0.09891172
456826,0.7181882,0.7457234,0.1027921
456828,0.7181882,0.7457234,0.1027921
456832,0.7359507,0.7656615,0.1008706
456834,0.7478197,0.7790887,0.1008706
456837,0.7478197,0.7790887,0.1008706
456839,0.751474,0.7840959,0.1065312
456841,0.7545922,0.7883269,0.1119058
456844,0.7545922,0.7883269,0.1119058
456846,0.7545922,0.7885751,0.1235407
456849,0.7545922,0.7885751,0.1235407
456851,0.7522548,0.7863387,0.1297215
456854,0.7472962,0.7813459,0.1426525
456856,0.7472962,0.7813459,0.1426525
456859,0.7446731,0.7790887,0.1493534
456861,0.7446731,0.7790887,0.1493534
456864,0.7348864,0.7687222,0.1631294
456866,0.7284679,0.7620752,0.1690205
456869,0.7284679,0.7620752,0.1690205
456871,0.7162784,0.7486043,0.1813082
456875,0.7099674,0.741777,0.1866263
456877,0.7099674,0.741777,0.1866263
456880,0.7002546,0.7314168,0.1978235
456882,0.7002546,0.7314168,0.1978235
456885,0.6960504,0.7273927,0.2017412
456887,0.6892704,0.7200928,0.2093567
456890,0.6892704,0.7200928,0.2093567
456892,0.6861406,0.7170975,0.2130625
456895,0.6838553,0.7143636,0.2167048
456897,0.6838553,0.7143636,0.2167048
456900,0.6792617,0.7096917,0.2229358
456902,0.6792617,0.7096917,0.2229358
456905,0.6778198,0.7080355,0.2246844
456907,0.6775311,0.7080355,0.2272819
456910,0.6775311,0.7080355,0.2272819
456912,0.6760855,0.707759,0.2298502
456915,0.6752167,0.7072059,0.2306999
456918,0.6752167,0.7072059,0.2306999
456921,0.6731851,0.7063754,0.23239
456923,0.6731851,0.7063754,0.23239
456926,0.6720214,0.7063754,0.2332305
456928,0.6708556,0.7055438,0.234068
456931,0.6708556,0.7055438,0.234068
456933,0.6693957,0.7047113,0.2349025
456936,0.6667597,0.7030433,0.2349025
456938,0.6667597,0.7030433,0.2349025
456941,0.6649964,0.7016503,0.2349025
456943,0.6649964,0.7016503,0.2349025
456946,0.6635236,0.7013714,0.234068
456948,0.6608641,0.6996954,0.2332305
456951,0.6608641,0.6996954,0.2332305
456953,0.659382,0.6988559,0.23239
456956,0.6578966,0.6980155,0.2315465
456958,0.6578966,0.6980155,0.2315465
456962,0.6570037,0.6968932,0.2315465
456964,0.6570037,0.6968932,0.2315465
456967,0.6552143,0.6960504,0.2281412
456969,0.6543178,0.6952065,0.2272819
456971,0.6543178,0.6952065,0.2272819
456974,0.6546168,0.6977351,0.2211734
456976,0.6549156,0.6980155,0.2193969
456979,0.6549156,0.6980155,0.2193969
456981,0.6564078,0.7005339,0.2148914
456984,0.6564078,0.7005339,0.2148914
456986,0.6567059,0.7013714,0.2121421
456989,0.6635236,0.7091401,0.2055842
456991,0.6635236,0.7091401,0.2055842
456994,0.6658786,0.7113441,0.2036718
456996,0.6658786,0.7113441,0.2036718
456999,0.6693957,0.7154584,0.1988102
457001,0.6743467,0.7217214,0.1938267
457005,0.6743467,0.7217214,0.1938267
457007,0.6760855,0.7238871,0.1907741
457010,0.6783969,0.7271236,0.1866263
457012,0.6783969,0.7271236,0.1866263
457015,0.6789736,0.7276617,0.1823843
457017,0.6789736,0.7276617,0.1823843
457020,0.6798376,0.729005,0.1769387
457022,0.6795497,0.7295417,0.1724585
457025,0.6795497,0.7295417,0.1724585
457027,0.6795497,0.7298098,0.1701742
457030,0.6887025,0.7407211,0.1570175
457032,0.6887025,0.7407211,0.1570175
457035,0.6963314,0.749649,0.1480375
457037,0.6963314,0.749649,0.1480375
457040,0.7143636,0.7697397,0.1297215
457042,0.7238871,0.7800927,0.1186941
457046,0.7322189,0.7885751,0.1119058
457048,0.7316842,0.7868362,0.1083524
457051,0.7314168,0.7858408,0.1046783
457053,0.7314168,0.7858408,0.1046783
457056,0.7306137,0.7825971,0.09891172
457058,0.7306137,0.7825971,0.09891172
457061,0.7300779,0.7810954,0.09691329
457063,0.7298098,0.7798419,0.09487279
457066,0.7298098,0.7798419,0.09487279
457068,0.7287365,0.7765731,0.08622923
457071,0.7279305,0.774302,0.08156469
457073,0.7279305,0.774302,0.08156469
457076,0.7271236,0.7715172,0.07132626
457078,0.7271236,0.7715172,0.07132626
457081,0.7300779,0.7727842,0.0656106
457083,0.7343537,0.7755645,0.05233916
457086,0.7343537,0.7755645,0.05233916
457089,0.7362165,0.7763211,0.05233916
457092,0.7409853,0.7793398,0.03426402
457094,0.7409853,0.7793398,0.03426402
457097,0.7409853,0.7793398,0.03426402
457099,0.7409853,0.7793398,0.03426402
457101,0.7467723,0.7833468,0.01978234
457104,0.7467723,0.7833468,0.01978234
457106,0.7467723,0.7833468,0.01978234
457109,0.7566639,0.7908052,0
457111,0.7648944,0.7972127,0
457114,0.7648944,0.7972127,0
457116,0.7813459,0.8089085,-0.02797646
457119,0.7813459,0.8089085,-0.02797646
457121,0.7875819,0.8137322,-0.03426402
457124,0.8013745,0.8240075,-0.05595291
457126,0.8013745,0.8240075,-0.05595291
457129,0.8067285,0.8280347,-0.06255726
457132,0.8067285,0.8280347,-0.06255726
457135,0.8185275,0.8360308,-0.08156469
457137,0.8230571,0.8393012,-0.08622923
457140,0.8230571,0.8393012,-0.08622923
457142,0.8357967,0.8488063,-0.1027921
457145,0.840466,0.8522572,-0.1065312
457147,0.840466,0.8522572,-0.1065312
457150,0.8561515,0.8650193,-0.1186941
457152,0.8561515,0.8650193,-0.1186941
457155,0.8623004,0.8697567,-0.1251145
457157,0.8787099,0.8835954,-0.1341704
457160,0.8787099,0.8835954,-0.1341704
457162,0.884702,0.8886743,-0.1398823
457165,0.8919711,0.8932863,-0.1506579
457167,0.8919711,0.8932863,-0.1506579
457170,0.8948184,0.8952556,-0.1545051
457172,0.8948184,0.8952556,-0.1545051
457176,0.8967844,0.8945997,-0.165511
457178,0.8976567,0.8945997,-0.1678588
457181,0.8976567,0.8945997,-0.1678588
457183,0.9011378,0.8954742,-0.1769387
457186,0.9022229,0.8959111,-0.1802258
457188,0.9022229,0.8959111,-0.1802258
457191,0.8980926,0.8899944,-0.183454
457193,0.8980926,0.8899944,-0.183454
457196,0.8970026,0.8880135,-0.1855749
457198,0.8908735,0.8807117,-0.1876719
457201,0.8908735,0.8807117,-0.1876719
457203,0.8886743,0.8782644,-0.1897456
457206,0.8838168,0.8717791,-0.191797
457208,0.8838168,0.8717791,-0.191797
457211,0.8820438,0.8697567,-0.1928145
457213,0.8820438,0.8697567,-0.1928145
457217,0.8791551,0.8656976,-0.1948336
457219,0.8780415,0.8643403,-0.1948336
457222,0.8780415,0.8643403,-0.1948336
457224,0.8820438,0.866827,-0.199792
457227,0.8840382,0.8677295,-0.2017412
457229,0.8840382,0.8677295,-0.2017412
457231,0.884702,0.867504,-0.2046302
457234,0.884702,0.867504,-0.2046302
457236,0.884702,0.867504,-0.2046302
457239,0.8891146,0.8711056,-0.2074791
457241,0.8891146,0.8711056,-0.2074791
457244,0.8908735,0.8724523,-0.20842
457246,0.8985283,0.8796002,-0.2102893
457249,0.8985283,0.8796002,-0.2102893
457251,0.901572,0.8818219,-0.2112177
457254,0.901572,0.8818219,-0.2112177
457256,0.9089215,0.8897746,-0.2102893
457260,0.9115012,0.892629,-0.2112177
457262,0.9115012,0.892629,-0.2112177
457265,0.9177057,0.8989637,-0.2093567
457267,0.9177057,0.8989637,-0.2093567
457270,0.9206861,0.9024397,-0.2093567
457272,0.9272513,0.9095671,-0.2074791
457275,0.9272513,0.9095671,-0.2074791
457277,0.9304113,0.913217,-0.2065338
457280,0.9375348,0.9211111,-0.2036718
457282,0.9375348,0.9211111,-0.2036718
457285,0.9410763,0.9247154,-0.2027088
457287,0.9410763,0.9247154,-0.2027088
457290,0.9472937,0.9318824,-0.199792
457292,0.9497693,0.9348176,-0.1978235
457295,0.9497693,0.9348176,-0.1978235
457297,0.9526493,0.9385778,-0.1948336
457300,0.9532654,0.9394114,-0.1938267
457303,0.9532654,0.9394114,-0.1938267
457306,0.9553158,0.9425307,-0.1897456
457308,0.9553158,0.9425307,-0.1897456
457311,0.9569532,0.9443973,-0.1897456
457313,0.9596078,0.9479132,-0.1855749
457316,0.9596078,0.9479132,-0.1855749
457318,0.9612376,0.9499753,-0.1845175
457321,0.9653005,0.9547011,-0.1802258
457323,0.9653005,0.9547011,-0.1802258
457326,0.9673254,0.957362,-0.1780411
457328,0.9673254,0.957362,-0.1780411
457331,0.9723696,0.9628648,-0.1735894
457333,0.9743798,0.9655032,-0.1724585
457336,0.9761857,0.96773,-0.1701742
457338,0.9767869,0.9687405,-0.1678588
457341,0.9773876,0.9695482,-0.165511
457344,0.9773876,0.9695482,-0.165511
457347,0.9769872,0.9701535,-0.1619255
457349,0.9769872,0.9701535,-0.1619255
457352,0.9763861,0.9699516,-0.1594904
457354,0.9759852,0.9697499,-0.1582588
457357,0.9759852,0.9697499,-0.1582588
457359,0.9737772,0.9683364,-0.1532334
457361,0.9731742,0.96773,-0.1519511
457364,0.9731742,0.96773,-0.1519511
457366,0.9755841,0.9705567,-0.1480375
457369,0.9755841,0.9705567,-0.1480375
457371,0.9761857,0.971967,-0.1467098
457374,0.9773876,0.9731742,-0.14537
457376,0.9773876,0.9731742,-0.14537
457379,0.9767869,0.972772,-0.1426525
457381,0.9761857,0.971967,-0.1440177
457384,0.9761857,0.971967,-0.1440177
457387,0.9753835,0.9713628,-0.1426525
457390,0.9753835,0.9713628,-0.1426525
457392,0.974179,0.9701535,-0.1412742
457395,0.9735762,0.9699516,-0.1398823
457397,0.9735762,0.9699516,-0.1398823
457400,0.974179,0.9701535,-0.1412742
457402,0.974179,0.9701535,-0.1412742
457405,0.9739782,0.9705567,-0.1398823
457407,0.9757847,0.9715644,-0.1426525
457410,0.9757847,0.9715644,-0.1426525
457412,0.9761857,0.9721684,-0.1426525
457415,0.9783881,0.9737772,-0.1440177
457417,0.9783881,0.9737772,-0.1440177
457420,0.9791879,0.9743798,-0.14537
457422,0.9791879,0.9743798,-0.14537
457425,0.9801866,0.9749822,-0.14537
457427,0.9805858,0.9755841,-0.14537
457431,0.9805858,0.9755841,-0.14537
457433,0.9787881,0.9733753,-0.14537
457436,0.977788,0.972772,-0.14537
457438,0.977788,0.972772,-0.14537
457441,0.9781881,0.9721684,-0.1480375
457443,0.9781881,0.9721684,-0.1480375
457446,0.9781881,0.971967,-0.1493534
457448,0.9785881,0.971967,-0.1506579
457451,0.9785881,0.971967,-0.1506579
457453,0.9787881,0.9717657,-0.1519511
457456,0.9765865,0.9691444,-0.1532334
457458,0.9765865,0.9691444,-0.1532334
457461,0.9757847,0.9683364,-0.1545051
457463,0.9757847,0.9683364,-0.1545051
457466,0.9709598,0.9626616,-0.1582588
457468,0.9689425,0.960423,-0.1582588
457472,0.9689425,0.960423,-0.1582588
457474,0.9640834,0.9547011,-0.1607126
457477,0.962255,0.9528548,-0.1631294
457479,0.962255,0.9528548,-0.1631294
457482,0.964895,0.9555206,-0.165511
457484,0.964895,0.9555206,-0.165511
457487,0.9659084,0.9559301,-0.166689
457489,0.9653005,0.9555206,-0.166689
457491,0.9653005,0.9555206,-0.166689
457494,0.9644893,0.9540861,-0.1690205
457496,0.9644893,0.953881,-0.1713202
457499,0.9644893,0.953881,-0.1713202
457501,0.9646922,0.9534706,-0.1735894
457504,0.9646922,0.9534706,-0.1735894
457506,0.9636774,0.9524438,-0.174713
457509,0.9628648,0.9507989,-0.1769387
457511,0.9628648,0.9507989,-0.1769387
457515,0.9620516,0.9499753,-0.1769387
457517,0.9616448,0.949151,-0.1802258
457520,0.9616448,0.949151,-0.1802258
457522,0.9628648,0.9499753,-0.1802258
457525,0.9638805,0.9510047,-0.1813082
457527,0.9646922,0.9514161,-0.1823843
457530,0.9659084,0.9524438,-0.183454
457532,0.9659084,0.9524438,-0.183454
457535,0.9681343,0.9542912,-0.1845175
457537,0.9681343,0.9542912,-0.1845175
457540,0.9689425,0.9549061,-0.1866263
457542,0.9689425,0.955111,-0.1855749
457545,0.9689425,0.955111,-0.1855749
457547,0.9701535,0.9561348,-0.1866263
457550,0.9709598,0.9571576,-0.1855749
457552,0.9709598,0.9571576,-0.1855749
457555,0.970355,0.9565441,-0.1866263
457558,0.970355,0.9565441,-0.1866263
457561,0.9693463,0.9553158,-0.1866263
457563,0.9699516,0.9561348,-0.1855749
457566,0.9699516,0.9561348,-0.1855749
457568,0.9707584,0.9571576,-0.1845175
457571,0.9689425,0.9559301,-0.1845175
457573,0.9689425,0.9559301,-0.1845175
457576,0.9679322,0.9549061,-0.183454
457578,0.9679322,0.9549061,-0.183454
457581,0.9691444,0.9567486,-0.1813082
457583,0.9709598,0.9585876,-0.1813082
457586,0.9709598,0.9585876,-0.1813082
457588,0.9717657,0.9598116,-0.1769387
457591,0.9711614,0.9600154,-0.1758294
457593,0.9711614,0.9600154,-0.1758294
457596,0.9717657,0.9610341,-0.1735894
457598,0.9717657,0.9610341,-0.1735894
457602,0.972772,0.9624583,-0.1701742
457604,0.9731742,0.963068,-0.1690205
457607,0.9731742,0.963068,-0.1690205
457609,0.972772,0.9636774,-0.165511
457612,0.9725708,0.9636774,-0.1643245
457614,0.9725708,0.9636774,-0.1643245
457617,0.9709598,0.9624583,-0.1607126
457619,0.9709598,0.9624583,-0.1607126
457622,0.9699516,0.9620516,-0.1582588
457624,0.9731742,0.9655032,-0.1570175
457626,0.9731742,0.9655032,-0.1570175
457629,0.9739782,0.966516,-0.1545051
457631,0.9781881,0.9711614,-0.1519511
457634,0.9781881,0.9711614,-0.1519511
457636,0.9793876,0.972772,-0.1519511
457639,0.9793876,0.972772,-0.1519511
457641,0.9805858,0.9739782,-0.1506579
457645,0.9839723,0.9773876,-0.1493534
457647,0.9839723,0.9773876,-0.1493534
457650,0.985562,0.978988,-0.1480375
457652,0.9847674,0.9781881,-0.1493534
457655,0.9847674,0.9781881,-0.1493534
457657,0.9837734,0.9763861,-0.1506579
457660,0.9837734,0.9763861,-0.1506579
457662,0.9815831,0.9737772,-0.1519511
457665,0.9817823,0.9733753,-0.1545051
457667,0.9817823,0.9733753,-0.1545051
457670,0.9817823,0.9721684,-0.1594904
457672,0.9811842,0.9715644,-0.1619255
457675,0.9811842,0.9715644,-0.1619255
457677,0.9809847,0.9707584,-0.1631294
457680,0.9809847,0.9707584,-0.1631294
457682,0.9841712,0.972772,-0.1678588
457686,0.9847674,0.9735762,-0.1690205
457688,0.9847674,0.9735762,-0.1690205
457691,0.987149,0.9743798,-0.1724585
457693,0.987149,0.9743798,-0.1724585
457696,0.9877436,0.9747815,-0.174713
457698,0.9875455,0.9733753,-0.1769387
457701,0.9875455,0.9733753,-0.1769387
457703,0.987149,0.9729732,-0.1769387
457706,0.9881397,0.9731742,-0.1791368
457708,0.9881397,0.9731742,-0.1791368
457711,0.9885356,0.9733753,-0.1791368
457713,0.9885356,0.9733753,-0.1791368
457716,0.989525,0.9739782,-0.1802258
457718,0.9903157,0.974179,-0.1813082
457721,0.9903157,0.974179,-0.1813082
457723,0.9905132,0.9745807,-0.1802258
457726,0.991303,0.9753835,-0.1802258
457729,0.991303,0.9753835,-0.1802258
457732,0.9907107,0.9743798,-0.1802258
457734,0.9907107,0.9743798,-0.1802258
457737,0.989525,0.972772,-0.1802258
457739,0.9887336,0.9715644,-0.1802258
457742,0.9887336,0.9715644,-0.1802258
457744,0.9877436,0.9707584,-0.1813082
457747,0.9865541,0.9693463,-0.1813082
457749,0.9865541,0.9693463,-0.1813082
457752,0.9859589,0.9687405,-0.1802258
457754,0.9859589,0.9687405,-0.1802258
457756,0.9849661,0.9675278,-0.1813082
457759,0.9837734,0.9655032,-0.183454
457761,0.9837734,0.9655032,-0.183454
457764,0.9835745,0.9646922,-0.1845175
457766,0.9831765,0.9644893,-0.1855749
457769,0.9831765,0.9644893,-0.1855749
457772,0.9835745,0.9642863,-0.1866263
457775,0.9835745,0.9642863,-0.1866263
457777,0.9841712,0.964895,-0.1866263
457780,0.9859589,0.9661109,-0.1897456
457782,0.9859589,0.9661109,-0.1897456
457785,0.9869508,0.966516,-0.1897456
457787,0.9883377,0.9671232,-0.191797
457790,0.9883377,0.9671232,-0.191797
457792,0.9887336,0.9673254,-0.1928145
457795,0.9887336,0.9673254,-0.1928145
457797,0.9879416,0.966516,-0.1938267
457800,0.9875455,0.9657058,-0.1928145
457802,0.9875455,0.9657058,-0.1928145
457805,0.9869508,0.9653005,-0.1938267
457807,0.9869508,0.9650977,-0.1938267
457810,0.9869508,0.9650977,-0.1938267
457812,0.9857605,0.9636774,-0.1928145
457816,0.9857605,0.9636774,-0.1928145
457818,0.9849661,0.963068,-0.1928145
457821,0.98238,0.9600154,-0.191797
457823,0.98238,0.9600154,-0.191797
457826,0.9803861,0.9583834,-0.1907741
457828,0.9803861,0.9583834,-0.1907741
457831,0.9779881,0.9563395,-0.1897456
457833,0.9769872,0.9555206,-0.1876719
457836,0.9769872,0.9555206,-0.1876719
457838,0.9765865,0.955111,-0.1876719
457841,0.9767869,0.9553158,-0.1866263
457843,0.9767869,0.9553158,-0.1866263
457846,0.9757847,0.9553158,-0.1855749
457848,0.9757847,0.9553158,-0.1855749
457851,0.9755841,0.9549061,-0.1845175
457853,0.9749822,0.9544962,-0.1845175
457857,0.9749822,0.9544962,-0.1845175
457859,0.971967,0.9522384,-0.1813082
457862,0.9711614,0.9510047,-0.1802258
457864,0.9711614,0.9510047,-0.1802258
457867,0.96773,0.948326,-0.1780411
457869,0.96773,0.948326,-0.1780411
457872,0.9667184,0.9472937,-0.1769387
457874,0.9675278,0.9493572,-0.1724585
457877,0.9675278,0.9493572,-0.1724585
457879,0.96773,0.9501812,-0.1713202
457882,0.9640834,0.9475003,-0.166689
457884,0.9640834,0.9475003,-0.166689
457886,0.9628648,0.9464671,-0.166689
457889,0.9628648,0.9464671,-0.166689
457891,0.9557254,0.9400361,-0.1619255
457894,0.9481196,0.9333511,-0.1570175
457896,0.9481196,0.9333511,-0.1570175
457900,0.9439828,0.9299906,-0.1545051
457902,0.9406604,0.9274623,-0.1532334
457905,0.9360726,0.9234449,-0.1506579
457907,0.9325122,0.920261,-0.1480375
457910,0.9325122,0.920261,-0.1480375
457912,0.9268292,0.9153573,-0.1440177
457915,0.9236568,0.9130027,-0.1412742
457917,0.9236568,0.9130027,-0.1412742
457920,0.91941,0.9099972,-0.1370561
457922,0.9159984,0.9074132,-0.132704
457925,0.9159984,0.9074132,-0.132704
457927,0.910857,0.9039564,-0.1266688
457930,0.910857,0.9039564,-0.1266688
457932,0.9063343,0.9002688,-0.1235407
457935,0.9000514,0.8950371,-0.1186941
457937,0.9000514,0.8950371,-0.1186941
457940,0.8952556,0.8910931,-0.1153499
457943,0.8913127,0.8875727,-0.1136409
457946,0.8913127,0.8875727,-0.1136409
457948,0.881156,0.8793777,-0.1065312
457951,0.881156,0.8793777,-0.1065312
457953,0.8746923,0.8742447,-0.1008706
457956,0.8706562,0.8708809,-0.09891172
457958,0.8706562,0.8708809,-0.09891172
457961,0.864793,0.8661495,-0.09487279
457963,0.864793,0.8661495,-0.09487279
457966,0.8609378,0.8627541,-0.09278741
457968,0.8554656,0.8572935,-0.09065409
457971,0.8554656,0.8572935,-0.09065409
457973,0.8538629,0.8556943,-0.08846933
457976,0.8511084,0.8529457,-0.08846933
457978,0.8511084,0.8529457,-0.08846933
457981,0.8515682,0.8534044,-0.09065409
457984,0.8515682,0.8534044,-0.09065409
457987,0.8517979,0.8531751,-0.09065409
457989,0.8538629,0.8545501,-0.09278741
457992,0.8538629,0.8545501,-0.09278741
457994,0.8559229,0.8554656,-0.09691329
457997,0.8572935,0.85638,-0.09891172
457999,0.8572935,0.85638,-0.09891172
458002,0.8607104,0.858434,-0.1046783
458004,0.8607104,0.858434,-0.1046783
458007,0.8708809,0.8670527,-0.1119058
458009,0.8744686,0.8697567,-0.1170339
458012,0.8744686,0.8697567,-0.1170339
458014,0.8787099,0.8731248,-0.1203313
458016,0.8844808,0.8769265,-0.1297215
458019,0.8844808,0.8769265,-0.1297215
458021,0.8866904,0.8787099,-0.1341704
458024,0.8891146,0.8798226,-0.1384764
458027,0.8913127,0.8809339,-0.1426525
458030,0.8956926,0.8829308,-0.1532334
458032,0.8956926,0.8829308,-0.1532334
458035,0.8972207,0.8838168,-0.1570175
458037,0.8967844,0.8824874,-0.1594904
458040,0.8967844,0.8824874,-0.1594904
458042,0.8963478,0.8807117,-0.1643245
458045,0.8963478,0.8807117,-0.1643245
458047,0.8956926,0.8798226,-0.165511
458050,0.8950371,0.8789325,-0.166689
458052,0.8950371,0.8789325,-0.166689
458055,0.8928481,0.8769265,-0.165511
458057,0.8897746,0.8740209,-0.1631294
458060,0.8897746,0.8740209,-0.1631294
458062,0.8886743,0.8729007,-0.1631294
458065,0.8886743,0.8729007,-0.1631294
458067,0.8813781,0.866827,-0.1557664
458071,0.8784871,0.864793,-0.1532334
458073,0.8784871,0.864793,-0.1532334
458076,0.8663754,0.8547791,-0.1440177
458078,0.8620735,0.8513383,-0.1398823
458081,0.8620735,0.8513383,-0.1398823
458083,0.8476528,0.8393012,-0.1282043
458086,0.8476528,0.8393012,-0.1282043
458088,0.8423266,0.835094,-0.1219466
458091,0.8289794,0.8249568,-0.1065312
458093,0.8289794,0.8249568,-0.1065312
458096,0.8144533,0.8132511,-0.09065409
458098,0.8144533,0.8132511,-0.09065409
458101,0.806971,0.806971,-0.08392937
458103,0.7920414,0.7952467,-0.05934703
458106,0.7920414,0.7952467,-0.05934703
458108,0.7853427,0.7895671,-0.04423466
458112,0.7666831,0.774302,0
458114,0.7666831,0.774302,0
458117,0.7564052,0.7651502,0
458119,0.7564052,0.7651502,0
458122,0.7343537,0.7451985,0.03426402
458124,0.7151849,0.7260464,0.0656106
458127,0.7151849,0.7260464,0.0656106
458129,0.7083117,0.7187329,0.07912937
458132,0.7055438,0.7143636,0.1008706
458134,0.7055438,0.7143636,0.1008706
458137,0.7016503,0.7069291,0.1341704
458139,0.7016503,0.7069291,0.1341704
458142,0.7066523,0.7033216,0.1802258
458144,0.7091401,0.7013714,0.1988102
458146,0.7091401,0.7013714,0.1988102
458149,0.7246976,0.7080355,0.2298502
458151,0.7246976,0.7080355,0.2298502
458155,0.7246976,0.7080355,0.2298502
458157,0.7246976,0.7080355,0.2298502
458160,0.7246976,0.7080355,0.2298502
458162,0.7959845,0.749649,0.3238513
458165,0.8275619,0.7666831,0.365305
458167,0.8275619,0.7666831,0.365305
458170,0.8552368,0.7805943,0.4000739
458172,0.9009206,0.7969672,0.4698059
458175,0.9009206,0.7969672,0.4698059
458177,0.9416999,0.806971,0.5341251
458180,0.9416999,0.806971,0.5341251
458182,0.9612376,0.8103587,0.5661368
458185,0.9956363,0.8158936,0.6202354
458187,0.9956363,0.8158936,0.6202354
458190,1.014714,0.8168523,0.652221
458192,1.049038,0.8190054,0.7063754
458195,1.049038,0.8190054,0.7063754
458198,1.068445,0.8201992,0.7370135
458201,1.068445,0.8201992,0.7370135
458203,1.103226,0.8228193,0.7888232
458206,1.140553,0.8259051,0.844183
458208,1.140553,0.8259051,0.844183
458211,1.15809,0.8275619,0.8688563
458213,1.188609,0.8266156,0.9159984
458216,1.188609,0.8266156,0.9159984
458218,1.203335,0.8268523,0.9373261
458221,1.203335,0.8268523,0.9373261
458223,1.231623,0.8254311,0.9791879
458226,1.245527,0.8244823,1.000147
458228,1.245527,0.8244823,1.000147
458231,1.273493,0.8221055,1.040234
458233,1.273493,0.8221055,1.040234
458236,1.2874,0.8206762,1.059802
458238,1.316558,0.8166127,1.100207
458242,1.316558,0.8166127,1.100207
458244,1.34523,0.8122882,1.139179
458247,1.360419,0.8074558,1.160284
458249,1.360419,0.8074558,1.160284
458252,1.391142,0.8006416,1.201056
458254,1.391142,0.8006416,1.201056
458257,1.409172,0.7999081,1.222533
458259,1.4432,0.798684,1.263156
458262,1.4432,0.798684,1.263156
458264,1.462194,0.7999081,1.284204
458267,1.49711,0.8013745,1.323378
458269,1.49711,0.8013745,1.323378
458272,1.515428,0.8047857,1.342172
458274,1.515428,0.8047857,1.342172
458276,1.551291,0.8098756,1.380268
458279,1.567604,0.812529,1.397598
458281,1.567604,0.812529,1.397598
458285,1.599121,0.8161334,1.431491
458287,1.612769,0.8163731,1.446857
458290,1.612769,0.8163731,1.446857
458292,1.641037,0.8170919,1.478829
458295,1.641037,0.8170919,1.478829
458297,1.662599,0.8120472,1.506102
458300,1.671287,0.8074558,1.518267
458302,1.671287,0.8074558,1.518267
458305,1.683653,0.7905577,1.540785
458307,1.688064,0.7798419,1.550912
458310,1.688064,0.7798419,1.550912
458312,1.690844,0.7564052,1.565106
458315,1.690844,0.7564052,1.565106
458317,1.691076,0.7444103,1.570847
458320,1.690381,0.7157319,1.582638
458322,1.690381,0.7157319,1.582638
458326,1.690149,0.6996954,1.588931
458328,1.683769,0.6743467,1.593236
458331,1.683769,0.6743467,1.593236
458333,1.679114,0.6641131,1.592868
458336,1.679114,0.6641131,1.592868
458338,1.669881,0.6382713,1.593482
458341,1.665892,0.6236961,1.594587
458343,1.665892,0.6236961,1.594587
458346,1.653629,0.5941319,1.592991
458348,1.641991,0.5668277,1.590655
458351,1.641991,0.5668277,1.590655
458353,1.639844,0.5560232,1.592376
458356,1.639844,0.5560232,1.592376
458358,1.629068,0.5192646,1.592007
458361,1.618099,0.4805128,1.59127
458363,1.618099,0.4805128,1.59127
458366,1.612284,0.4609765,1.590409
458369,1.612284,0.4609765,1.590409
458372,1.598999,0.4219727,1.586466
458374,1.592007,0.403483,1.583503
458377,1.592007,0.403483,1.583503
458379,1.578056,0.3700944,1.57607
458382,1.571968,0.354982,1.572839
458384,1.571968,0.354982,1.572839
458387,1.557208,0.3322025,1.561851
458389,1.557208,0.3322025,1.561851
458392,1.549397,0.324455,1.555574
458394,1.540912,0.3090104,1.549397
458397,1.540912,0.3090104,1.549397
458399,1.532124,0.3006659,1.5418
458402,1.526365,0.2934199,1.537224
458404,1.526365,0.2934199,1.537224
458406,1.51517,0.2846186,1.527134
458409,1.51517,0.2776587,1.520199
458412,1.501938,0.2697954,1.515816
458415,1.489903,0.261696,1.504542
458417,1.489903,0.261696,1.504542
458420,1.474323,0.2470816,1.490954
458422,1.462328,0.2382111,1.479755
458425,1.462328,0.2382111,1.479755
458427,1.446721,0.2238118,1.465536
458430,1.446721,0.2238118,1.465536
458432,1.426287,0.2130625,1.44618
458435,1.419824,0.20842,1.440078
458437,1.419824,0.20842,1.440078
458440,1.397878,0.1988102,1.418859
458442,1.390579,0.1938267,1.411946
458445,1.390579,0.1938267,1.411946
458447,1.368879,0.1887116,1.390298
458450,1.368879,0.1887116,1.390298
458452,1.361713,0.1887116,1.383242
458456,1.340275,0.1855749,1.361569
458458,1.340275,0.1855749,1.361569
458461,1.333102,0.183454,1.354364
458463,1.316855,0.1791368,1.338083
458466,1.316855,0.1791368,1.338083
458468,1.301911,0.174713,1.323378
458471,1.301911,0.174713,1.323378
458473,1.291195,0.1724585,1.31239
458476,1.276562,0.1690205,1.297695
458478,1.276562,0.1690205,1.297695
458481,1.26764,0.165511,1.288464
458483,1.255542,0.1607126,1.276102
458486,1.255542,0.1607126,1.276102
458488,1.246626,0.1607126,1.267023
458491,1.246626,0.1607126,1.267023
458493,1.234639,0.1582588,1.254762
458497,1.228123,0.1570175,1.248195
458499,1.228123,0.1570175,1.248195
458502,1.219328,0.1532334,1.239384
458504,1.219328,0.1532334,1.239384
458507,1.214182,0.1506579,1.234163
458509,1.207232,0.1467098,1.227485
458512,1.207232,0.1467098,1.227485
458514,1.203172,0.1426525,1.223333
458517,1.19763,0.1398823,1.218204
458519,1.19763,0.1398823,1.218204
458522,1.195995,0.1370561,1.216597
458524,1.193374,0.132704,1.214343
458527,1.191733,0.1297215,1.21273
458529,1.189103,0.1266688,1.210792
458532,1.189103,0.1266688,1.210792
458534,1.18828,0.1235407,1.210146
458536,1.187291,0.1186941,1.209337
458540,1.187291,0.1186941,1.209337
458542,1.186962,0.1136409,1.209175
458545,1.186962,0.1136409,1.209175
458547,1.185807,0.1136409,1.208204
458550,1.185147,0.1119058,1.207556
458552,1.185147,0.1119058,1.207556
458555,1.183825,0.1101434,1.206421
458557,1.183329,0.1101434,1.206259
458560,1.183329,0.1101434,1.206259
458562,1.183495,0.1119058,1.206259
458565,1.183495,0.1119058,1.206259
458567,1.18366,0.1119058,1.206259
458570,1.184982,0.1101434,1.20788
458572,1.184982,0.1101434,1.20788
458575,1.186797,0.1083524,1.210146
458577,1.187456,0.1046783,1.210954
458580,1.187456,0.1046783,1.210954
458583,1.191405,0.1008706,1.215309
458586,1.191405,0.1008706,1.215309
458588,1.192882,0.09891172,1.216918
458591,1.200404,0.09487279,1.224772
458593,1.200404,0.09487279,1.224772
458596,1.203172,0.09691329,1.227964
458598,1.212246,0.08846933,1.237172
458601,1.212246,0.08846933,1.237172
458603,1.21547,0.08622923,1.240647
458606,1.21547,0.08622923,1.240647
458608,1.22589,0.08392937,1.251483
458611,1.229874,0.07912937,1.255542
458613,1.229874,0.07912937,1.255542
458616,1.244426,0.07401875,1.270262
458618,1.249605,0.07401875,1.275642
458621,1.249605,0.07401875,1.275642
458624,1.267795,0.06852804,1.293768
458627,1.267795,0.06852804,1.293768
458629,1.274261,-0.0656106,1.300105
458632,1.291649,-0.0656106,1.31745
458634,1.291649,-0.0656106,1.31745
458637,1.297997,-0.06852804,1.323674
458639,1.297997,-0.06852804,1.323674
458642,1.319379,-0.08392937,1.34392
458644,1.327512,-0.09278741,1.351616
458647,1.327512,-0.09278741,1.351616
458649,1.348862,-0.1186941,1.370736
458652,1.35725,-0.1297215,1.37814
458654,1.35725,-0.1297215,1.37814
458657,1.377714,-0.1643245,1.394795
458659,1.377714,-0.1643245,1.394795
458662,1.385786,-0.1780411,1.401234
458664,1.402908,-0.2065338,1.414439
458667,1.402908,-0.2065338,1.414439
458670,1.409727,-0.2167048,1.419549
458672,1.423266,-0.2462884,1.428207
458675,1.423266,-0.2462884,1.428207
458677,1.428892,-0.2586879,1.431902
458680,1.428892,-0.2586879,1.431902
458682,1.437766,-0.2797648,1.436677
458685,1.445097,-0.2960753,1.440757
458687,1.445097,-0.2960753,1.440757
458690,1.447398,-0.302612,1.441708
458692,1.452122,-0.3146578,1.443878
458695,1.452122,-0.3146578,1.443878
458697,1.452796,-0.3189811,1.443607
458700,1.452796,-0.3189811,1.443607
458702,1.455084,-0.3274564,1.443878
458705,1.454949,-0.3292442,1.4432
458707,1.454949,-0.3292442,1.4432
