time,turnedAngle,pitchAngle,yawAngle
3,0,0,0
338872,0,0,0
338875,0,0,0
338867,0,0,0
338870,0,0,0
338872,0,0,0
338875,0.5245137,0.5241405,-0.05934703
0,0.5245137,0.5241405,-0.05934703
1,0.5245137,0.5241405,-0.05934703
2,0.5263757,0.5260038,-0.05934703
4,0.5263757,0.5260038,-0.05934703
5,0.5274898,0.5271187,-0.06255726
7,0.5274898,0.5271187,-0.06255726
8,0.5282311,0.5278606,-0.05934703
10,0.5282311,0.5278606,-0.05934703
12,0.5286014,0.5286014,-0.06255726
14,0.5286014,0.5286014,-0.06255726
16,0.5293413,0.5293413,-0.0656106
19,0.5293413,0.5293413,-0.0656106
21,0.5297108,0.5293413,-0.0656106
23,0.5308178,0.53008,-0.06852804
25,0.5308178,0.53008,-0.06852804
27,0.5311863,0.5308178,-0.06852804
29,0.5311863,0.5308178,-0.06852804
32,0.5315546,0.5315546,-0.06852804
34,0.5315546,0.5315546,-0.06852804
36,0.5322903,0.5322903,-0.06255726
38,0.5322903,0.5322903,-0.06255726
40,0.5289715,0.5289715,-0.0656106
43,0.5289715,0.5289715,-0.0656106
46,0.5274898,0.5274898,-0.06852804
48,0.5274898,0.5274898,-0.06852804
50,0.5274898,0.5274898,-0.0656106
52,0.5274898,0.5274898,-0.07132626
54,0.5274898,0.5274898,-0.07132626
56,0.5252593,0.5252593,-0.06852804
58,0.5252593,0.5252593,-0.06852804
61,0.5218958,0.5211454,-0.06852804
63,0.5218958,0.5211454,-0.06852804
65,0.5410409,0.5406791,-0.07401875
67,0.5410409,0.5406791,-0.07401875
69,0.5570779,0.5567266,-0.07661668
71,0.5570779,0.5567266,-0.07661668
74,0.5595313,0.5591815,-0.07661668
76,0.5595313,0.5591815,-0.07661668
78,0.5619739,0.5616257,-0.07661668
80,0.5609285,0.5605795,-0.07661668
82,0.5609285,0.5605795,-0.07661668
84,0.5602303,0.5602303,-0.07401875
88,0.5602303,0.5602303,-0.07401875
90,0.556375,0.5560232,-0.07132626
92,0.556375,0.5560232,-0.07132626
94,0.5532007,0.5532007,-0.07401875
96,0.5532007,0.5532007,-0.07401875
98,0.5492961,0.5485832,-0.07401875
100,0.5492961,0.5485832,-0.07401875
103,0.5457222,0.5453635,-0.07132626
105,0.5410409,0.5410409,-0.06852804
107,0.5410409,0.5410409,-0.06852804
109,0.5395923,0.5392296,-0.07132626
112,0.5395923,0.5392296,-0.07132626
114,0.5392296,0.5392296,-0.06852804
116,0.5392296,0.5392296,-0.06852804
118,0.5392296,0.5392296,-0.07132626
121,0.5392296,0.5392296,-0.07132626
123,0.5399548,0.5395923,-0.07132626
125,0.5399548,0.5392296,-0.06852804
128,0.5399548,0.5392296,-0.06852804
131,0.5377761,0.5374122,-0.06852804
133,0.5377761,0.5374122,-0.06852804
135,0.5363187,0.5359538,-0.06852804
137,0.5363187,0.5359538,-0.06852804
140,0.530449,0.53008,-0.0656106
142,0.5267473,0.5260038,-0.0656106
144,0.5267473,0.5260038,-0.0656106
146,0.5237671,0.5230194,-0.06852804
149,0.5237671,0.5230194,-0.06852804
151,0.5211454,0.5200178,-0.0656106
153,0.5211454,0.5200178,-0.0656106
155,0.5203939,0.5203939,-0.06255726
158,0.5203939,0.5203939,-0.06255726
160,0.5207698,0.5200178,-0.0656106
162,0.5215207,0.5207698,-0.06255726
164,0.5215207,0.5207698,-0.06255726
166,0.5218958,0.5207698,-0.06255726
169,0.5218958,0.5207698,-0.06255726
172,0.5207698,0.5203939,-0.06255726
174,0.5207698,0.5203939,-0.06255726
176,0.5200178,0.5188877,-0.05595291
179,0.5200178,0.5188877,-0.05595291
181,0.5173771,0.5169988,-0.05934703
183,0.5151029,0.5151029,-0.05934703
185,0.5151029,0.5151029,-0.05934703
188,0.5143426,0.513962,-0.05595291
190,0.5143426,0.513962,-0.05595291
192,0.5471546,0.5467969,-0.06852804
194,0.5471546,0.5467969,-0.06852804
197,0.569239,0.5685511,-0.06852804
199,0.5875081,0.587175,-0.07401875
201,0.5875081,0.587175,-0.07401875
203,0.6029587,0.6023093,-0.07661668
206,0.6029587,0.6023093,-0.07661668
208,0.5997046,0.5990517,-0.07401875
210,0.5997046,0.5990517,-0.07401875
212,0.6097356,0.6094146,-0.07401875
216,0.6097356,0.6094146,-0.07401875
218,0.6205508,0.6202354,-0.07661668
220,0.6299395,0.6296288,-0.07661668
222,0.6299395,0.6296288,-0.07661668
225,0.6407191,0.640108,-0.07912937
227,0.6407191,0.640108,-0.07912937
229,0.640108,0.6394964,-0.07912937
231,0.640108,0.6394964,-0.07912937
233,0.6327289,0.6324196,-0.07661668
236,0.6327289,0.6324196,-0.07661668
238,0.6271377,0.6265134,-0.07401875
240,0.6049027,0.6045791,-0.07132626
242,0.6049027,0.6045791,-0.07132626
245,0.5928131,0.5921526,-0.07132626
247,0.5928131,0.5921526,-0.07132626
249,0.5828267,0.5821548,-0.07132626
251,0.5828267,0.5821548,-0.07132626
254,0.5747126,0.5740312,-0.06852804
257,0.5609285,0.5598809,-0.06852804
259,0.5609285,0.5598809,-0.06852804
261,0.5556712,0.5549665,-0.06852804
264,0.5556712,0.5549665,-0.06852804
266,0.5489398,0.5482264,-0.07132626
268,0.5489398,0.5482264,-0.07132626
270,0.5435666,0.5428462,-0.06852804
273,0.5435666,0.5428462,-0.06852804
275,0.5406791,0.5399548,-0.06852804
277,0.5381398,0.5374122,-0.0656106
279,0.5381398,0.5374122,-0.0656106
282,0.5363187,0.5359538,-0.0656106
284,0.5363187,0.5359538,-0.0656106
286,0.5348573,0.5341251,-0.0656106
288,0.5348573,0.5341251,-0.0656106
291,0.5311863,0.530449,-0.0656106
293,0.5271187,0.5260038,-0.0656106
295,0.5271187,0.5260038,-0.0656106
297,0.5260038,0.5248867,-0.0656106
300,0.5260038,0.5248867,-0.0656106
303,0.5248867,0.5233933,-0.06852804
305,0.5248867,0.5233933,-0.06852804
307,0.5230194,0.5222706,-0.07132626
309,0.5230194,0.5222706,-0.07132626
312,0.5215207,0.5211454,-0.06852804
314,0.5196414,0.5192646,-0.06852804
316,0.5196414,0.5192646,-0.06852804
318,0.518133,0.5177552,-0.06852804
321,0.518133,0.5177552,-0.06852804
323,0.5185105,0.5177552,-0.06852804
325,0.5185105,0.5177552,-0.06852804
327,0.5203939,0.5188877,-0.07132626
330,0.5203939,0.5188877,-0.07132626
332,0.5222706,0.5211454,-0.0656106
334,0.5233933,0.5226451,-0.0656106
336,0.5233933,0.5226451,-0.0656106
339,0.5252593,0.5245137,-0.06852804
342,0.5252593,0.5245137,-0.06852804
344,0.5230194,0.5211454,-0.0656106
346,0.5230194,0.5211454,-0.0656106
349,0.5218958,0.5211454,-0.0656106
351,0.5211454,0.5200178,-0.07132626
353,0.5211454,0.5200178,-0.07132626
355,0.5203939,0.5196414,-0.0656106
357,0.5203939,0.5196414,-0.0656106
360,0.5203939,0.5192646,-0.0656106
362,0.5203939,0.5192646,-0.0656106
364,0.5200178,0.5185105,-0.0656106
366,0.5200178,0.5185105,-0.0656106
369,0.5185105,0.5173771,-0.06852804
371,0.5185105,0.5173771,-0.06852804
373,0.5188877,0.5173771,-0.06852804
375,0.5188877,0.5173771,-0.06852804
378,0.5188877,0.5173771,-0.06852804
380,0.5188877,0.5177552,-0.06852804
382,0.5188877,0.5177552,-0.06852804
385,0.5188877,0.518133,-0.06852804
388,0.5188877,0.518133,-0.06852804
390,0.5177552,0.5162413,-0.07132626
392,0.5158621,0.5147229,-0.07132626
394,0.5158621,0.5147229,-0.07132626
397,0.5348573,0.5341251,-0.07132626
399,0.5348573,0.5341251,-0.07132626
401,0.5507192,0.5503638,-0.07661668
403,0.5507192,0.5503638,-0.07661668
406,0.564406,0.5640592,-0.07661668
408,0.5647526,0.5640592,-0.07661668
410,0.5647526,0.5640592,-0.07661668
412,0.5609285,0.5605795,-0.07661668
415,0.5609285,0.5605795,-0.07661668
417,0.55778,0.5574291,-0.07401875
419,0.55778,0.5574291,-0.07401875
421,0.5560232,0.5560232,-0.07401875
423,0.5560232,0.5560232,-0.07401875
427,0.5517841,0.5517841,-0.07401875
429,0.5450047,0.5442861,-0.07132626
431,0.5450047,0.5442861,-0.07132626
433,0.5417637,0.5414024,-0.07132626
436,0.5417637,0.5414024,-0.07132626
438,0.5584812,0.55778,-0.07401875
440,0.5584812,0.55778,-0.07401875
442,0.5723243,0.5723243,-0.07661668
445,0.5723243,0.5723243,-0.07661668
447,0.5848376,0.5848376,-0.07661668
449,0.6023093,0.6019843,-0.07912937
451,0.6023093,0.6019843,-0.07912937
454,0.612617,0.6122975,-0.08156469
456,0.612617,0.6122975,-0.08156469
458,0.6097356,0.6090934,-0.08156469
460,0.6097356,0.6090934,-0.08156469
463,0.607807,0.6071628,-0.08392937
465,0.598725,0.5983981,-0.07912937
467,0.598725,0.5983981,-0.07912937
470,0.5834977,0.5828267,-0.07661668
473,0.5834977,0.5828267,-0.07661668
475,0.5767518,0.5760729,-0.07661668
477,0.5767518,0.5760729,-0.07661668
479,0.5723243,0.5716401,-0.07401875
482,0.5723243,0.5716401,-0.07401875
484,0.5657911,0.5654452,-0.07132626
486,0.5612772,0.5609285,-0.07132626
488,0.5612772,0.5609285,-0.07132626
490,0.5542608,0.5535544,-0.07132626
493,0.5542608,0.5535544,-0.07132626
495,0.5446455,0.5439265,-0.06852804
497,0.5446455,0.5439265,-0.06852804
499,0.5417637,0.5414024,-0.0656106
502,0.5403171,0.5392296,-0.06852804
504,0.5403171,0.5392296,-0.06852804
506,0.5385033,0.5377761,-0.06852804
508,0.5385033,0.5377761,-0.06852804
512,0.5374122,0.5359538,-0.0656106
514,0.5374122,0.5359538,-0.0656106
516,0.5381398,0.5374122,-0.0656106
518,0.5381398,0.5374122,-0.0656106
521,0.5395923,0.5385033,-0.06255726
523,0.5428462,0.5421248,-0.05934703
525,0.5428462,0.5421248,-0.05934703
527,0.5446455,0.5428462,-0.05934703
530,0.5446455,0.5428462,-0.05934703
532,0.5450047,0.5435666,-0.05934703
534,0.5450047,0.5435666,-0.05934703
536,0.5457222,0.5446455,-0.05934703
539,0.5457222,0.5446455,-0.05934703
541,0.5457222,0.5446455,-0.05934703
543,0.5467969,0.5450047,-0.0656106
545,0.5467969,0.5450047,-0.0656106
548,0.5453635,0.5439265,-0.0656106
550,0.5453635,0.5439265,-0.0656106
552,0.5435666,0.5421248,-0.06255726
555,0.5435666,0.5421248,-0.06255726
557,0.5435666,0.5417637,-0.06852804
560,0.5442861,0.5421248,-0.0656106
562,0.5442861,0.5421248,-0.0656106
564,0.5442861,0.5428462,-0.0656106
566,0.5442861,0.5428462,-0.0656106
569,0.5442861,0.5428462,-0.06852804
571,0.5442861,0.5428462,-0.06852804
573,0.5439265,0.5424856,-0.06852804
575,0.5439265,0.5424856,-0.06852804
578,0.5439265,0.5424856,-0.0656106
580,0.5439265,0.5432066,-0.06852804
582,0.5439265,0.5432066,-0.06852804
584,0.5428462,0.5417637,-0.07132626
587,0.5428462,0.5417637,-0.07132626
589,0.5424856,0.5414024,-0.07132626
591,0.5424856,0.5414024,-0.07132626
593,0.5421248,0.5417637,-0.07132626
596,0.5421248,0.5417637,-0.07132626
599,0.5424856,0.5414024,-0.07132626
601,0.5403171,0.5392296,-0.07401875
603,0.5403171,0.5392296,-0.07401875
606,0.5385033,0.5385033,-0.07132626
608,0.5385033,0.5385033,-0.07132626
610,0.5381398,0.5363187,-0.07661668
612,0.5381398,0.5363187,-0.07661668
615,0.5363187,0.5348573,-0.07401875
617,0.5359538,0.5348573,-0.07912937
619,0.5359538,0.5348573,-0.07912937
621,0.5377761,0.5370479,-0.07132626
623,0.5377761,0.5370479,-0.07132626
626,0.5399548,0.5392296,-0.07132626
628,0.5399548,0.5392296,-0.07132626
630,0.5417637,0.5414024,-0.06852804
632,0.5417637,0.5414024,-0.06852804
635,0.5421248,0.5414024,-0.0656106
637,0.5424856,0.5417637,-0.0656106
640,0.5424856,0.5417637,-0.0656106
642,0.5450047,0.5450047,-0.05934703
645,0.5450047,0.5450047,-0.05934703
647,0.5489398,0.5492961,-0.05934703
649,0.5489398,0.5492961,-0.05934703
651,0.5524929,0.5528469,-0.05934703
654,0.5524929,0.5528469,-0.05934703
656,0.55778,0.5591815,-0.05595291
658,0.5605795,0.5616257,-0.04845664
660,0.5605795,0.5616257,-0.04845664
663,0.5630175,0.5637122,-0.05233916
665,0.5630175,0.5637122,-0.05233916
667,0.5657911,0.5668277,-0.04423466
669,0.5657911,0.5668277,-0.04423466
672,0.5688952,0.5702693,-0.04423466
674,0.5712977,0.5726661,-0.04845664
676,0.5712977,0.5726661,-0.04845664
678,0.5730078,0.5747126,-0.04423466
681,0.5730078,0.5747126,-0.04423466
684,0.5760729,0.5777687,-0.04423466
686,0.5760729,0.5777687,-0.04423466
688,0.5767518,0.5787839,-0.03956468
690,0.5767518,0.5787839,-0.03956468
693,0.5723243,0.5733491,-0.04423466
695,0.5661368,0.5671728,-0.05233916
697,0.5661368,0.5671728,-0.05233916
699,0.5640592,0.5654452,-0.04423466
702,0.5640592,0.5654452,-0.04423466
704,0.5630175,0.5640592,-0.04845664
706,0.5630175,0.5640592,-0.04845664
708,0.5574291,0.5581307,-0.05233916
711,0.555319,0.5556712,-0.04845664
713,0.555319,0.5556712,-0.04845664
715,0.5521386,0.5524929,-0.05233916
717,0.5521386,0.5524929,-0.05233916
720,0.5453635,0.5457222,-0.05934703
722,0.5453635,0.5457222,-0.05934703
724,0.5421248,0.5417637,-0.05595291
727,0.5421248,0.5417637,-0.05595291
730,0.5395923,0.5392296,-0.05595291
732,0.5359538,0.5359538,-0.06255726
734,0.5359538,0.5359538,-0.06255726
736,0.5348573,0.5337587,-0.06255726
739,0.5348573,0.5337587,-0.06255726
741,0.5337587,0.533392,-0.06852804
743,0.5337587,0.533392,-0.06852804
745,0.5315546,0.5311863,-0.0656106
748,0.5315546,0.5311863,-0.0656106
750,0.5308178,0.53008,-0.06852804
752,0.53008,0.5289715,-0.0656106
754,0.53008,0.5289715,-0.0656106
756,0.5319225,0.5319225,-0.0656106
759,0.5319225,0.5319225,-0.0656106
761,0.533025,0.5322903,-0.0656106
763,0.533025,0.5322903,-0.0656106
765,0.5315546,0.5308178,-0.0656106
769,0.5297108,0.5293413,-0.0656106
771,0.5297108,0.5293413,-0.0656106
773,0.53008,0.5297108,-0.0656106
775,0.53008,0.5297108,-0.0656106
778,0.530449,0.53008,-0.06255726
780,0.530449,0.53008,-0.06255726
782,0.5274898,0.5274898,-0.0656106
784,0.5274898,0.5274898,-0.0656106
787,0.5233933,0.5222706,-0.06852804
789,0.5230194,0.5222706,-0.0656106
791,0.5230194,0.5222706,-0.0656106
793,0.5230194,0.5226451,-0.06852804
796,0.5230194,0.5226451,-0.06852804
798,0.5252593,0.5252593,-0.05934703
800,0.5252593,0.5252593,-0.05934703
802,0.5263757,0.5263757,-0.0656106
805,0.5263757,0.5263757,-0.0656106
807,0.5450047,0.5446455,-0.06852804
809,0.5736903,0.5733491,-0.07132626
812,0.5736903,0.5733491,-0.07132626
814,0.5712977,0.5712977,-0.07132626
817,0.5712977,0.5712977,-0.07132626
819,0.5695826,0.569239,-0.07132626
821,0.5695826,0.569239,-0.07132626
823,0.5630175,0.5626699,-0.07132626
826,0.5588315,0.5588315,-0.07132626
828,0.5588315,0.5588315,-0.07132626
830,0.5528469,0.5528469,-0.07132626
832,0.5528469,0.5528469,-0.07132626
835,0.5482264,0.5482264,-0.06852804
837,0.5482264,0.5482264,-0.06852804
839,0.5616257,0.5612772,-0.0656106
841,0.5616257,0.5612772,-0.0656106
844,0.5753932,0.5753932,-0.07132626
846,0.5858405,0.5855064,-0.07132626
848,0.5858405,0.5855064,-0.07132626
850,0.5848376,0.5845029,-0.06852804
854,0.5848376,0.5845029,-0.06852804
856,0.57743,0.577091,-0.0656106
858,0.57743,0.577091,-0.0656106
860,0.5716401,0.5712977,-0.06852804
863,0.5675176,0.5671728,-0.0656106
865,0.5619739,0.5616257,-0.0656106
867,0.5581307,0.5574291,-0.06255726
869,0.5581307,0.5574291,-0.06255726
872,0.555319,0.5549665,-0.05934703
874,0.555319,0.5549665,-0.05934703
876,0.5485832,0.5478694,-0.06255726
878,0.5485832,0.5478694,-0.06255726
880,0.5450047,0.5442861,-0.05934703
883,0.5424856,0.5414024,-0.06255726
885,0.5424856,0.5414024,-0.06255726
887,0.5374122,0.5363187,-0.06255726
889,0.5374122,0.5363187,-0.06255726
892,0.5355885,0.5344914,-0.05934703
894,0.5355885,0.5344914,-0.05934703
897,0.5341251,0.533392,-0.0656106
899,0.5341251,0.533392,-0.0656106
902,0.5326577,0.5322903,-0.06255726
904,0.5308178,0.5293413,-0.06255726
906,0.5308178,0.5293413,-0.06255726
908,0.5289715,0.5282311,-0.06255726
911,0.5289715,0.5282311,-0.06255726
913,0.5274898,0.5274898,-0.05934703
915,0.5274898,0.5274898,-0.05934703
917,0.5282311,0.5282311,-0.06255726
920,0.5282311,0.5282311,-0.06255726
922,0.5289715,0.5286014,-0.05934703
924,0.5286014,0.5278606,-0.05934703
926,0.5286014,0.5278606,-0.05934703
929,0.5286014,0.5278606,-0.05934703
931,0.5286014,0.5278606,-0.05934703
933,0.5282311,0.5274898,-0.06255726
935,0.5282311,0.5274898,-0.06255726
939,0.5278606,0.5274898,-0.0656106
941,0.5271187,0.5263757,-0.06255726
943,0.5271187,0.5263757,-0.06255726
945,0.5241405,0.5233933,-0.0656106
947,0.5241405,0.5233933,-0.0656106
950,0.5226451,0.5215207,-0.06255726
952,0.5226451,0.5215207,-0.06255726
954,0.5226451,0.5215207,-0.06255726
956,0.5226451,0.5215207,-0.06255726
959,0.5226451,0.5215207,-0.06255726
961,0.5200178,0.5192646,-0.0656106
963,0.5200178,0.5192646,-0.0656106
965,0.518133,0.5173771,-0.06255726
968,0.518133,0.5173771,-0.06255726
970,0.5169988,0.5143426,-0.06255726
972,0.5154827,0.5143426,-0.06255726
974,0.5143426,0.5132,-0.06255726
977,0.5132,0.5124369,-0.06255726
979,0.5132,0.5124369,-0.06255726
982,0.5128186,0.5116726,-0.0656106
984,0.5128186,0.5116726,-0.0656106
987,0.5124369,0.5112901,-0.05934703
989,0.5124369,0.5112901,-0.05934703
991,0.5151029,0.513962,-0.06255726
993,0.5151029,0.513962,-0.06255726
996,0.5162413,0.5147229,-0.05934703
998,0.5166202,0.5154827,-0.05595291
1000,0.5166202,0.5154827,-0.05595291
1002,0.5169988,0.5162413,-0.05595291
1005,0.5169988,0.5162413,-0.05595291
1007,0.5162413,0.5151029,-0.06255726
1009,0.5162413,0.5151029,-0.06255726
1012,0.5154827,0.513962,-0.06255726
1014,0.5109072,0.509757,-0.05934703
1016,0.5109072,0.509757,-0.05934703
1019,0.508604,0.5082192,-0.05595291
1021,0.508604,0.5082192,-0.05595291
1024,0.5256317,0.5248867,-0.06255726
1027,0.5517841,0.5510744,-0.0656106
1029,0.5517841,0.5510744,-0.0656106
1031,0.5712977,0.5706123,-0.06852804
1034,0.5712977,0.5706123,-0.06852804
1036,0.5878411,0.587175,-0.06852804
1038,0.5878411,0.587175,-0.06852804
1041,0.615167,0.615167,-0.07401875
1043,0.6262009,0.6258884,-0.07401875
1045,0.6262009,0.6258884,-0.07401875
1048,0.6364292,0.6361217,-0.07661668
1050,0.6364292,0.6361217,-0.07661668
1052,0.645587,0.6452838,-0.07912937
1054,0.645587,0.6452838,-0.07912937
1057,0.6394964,0.6391903,-0.08156469
1059,0.6283845,0.628073,-0.08156469
1061,0.6283845,0.628073,-0.08156469
1064,0.6299395,0.6296288,-0.07912937
1067,0.6299395,0.6296288,-0.07912937
1069,0.6318005,0.6318005,-0.07912937
1072,0.6388841,0.6385778,-0.07912937
1074,0.6388841,0.6385778,-0.07912937
1076,0.6431577,0.6431577,-0.07912937
1079,0.6431577,0.6431577,-0.07912937
1081,0.628073,0.628073,-0.07401875
1083,0.628073,0.628073,-0.07401875
1086,0.6058724,0.6055493,-0.07132626
1088,0.5974163,0.5974163,-0.06852804
1090,0.5974163,0.5974163,-0.06852804
1093,0.6016592,0.6019843,-0.06852804
1095,0.6016592,0.6019843,-0.06852804
1097,0.614212,0.614212,-0.07132626
1100,0.6214961,0.6214961,-0.07132626
1102,0.6214961,0.6214961,-0.07132626
1104,0.63025,0.63025,-0.07401875
1107,0.63025,0.63025,-0.07401875
1110,0.6431577,0.6431577,-0.07132626
1112,0.6431577,0.6431577,-0.07132626
1115,0.6489125,0.649214,-0.07401875
1117,0.6537194,0.6540186,-0.07401875
1119,0.6537194,0.6540186,-0.07401875
1122,0.6573014,0.6578966,-0.07132626
1124,0.6573014,0.6578966,-0.07132626
1126,0.6620474,0.6617518,-0.07661668
1129,0.6443735,0.644677,-0.07132626
1131,0.6443735,0.644677,-0.07132626
1133,0.63025,0.63025,-0.07132626
1136,0.63025,0.63025,-0.07132626
1138,0.6192883,0.6192883,-0.06852804
1140,0.6192883,0.6192883,-0.06852804
1142,0.6199199,0.6196041,-0.06852804
1145,0.6262009,0.6262009,-0.06852804
1147,0.6262009,0.6262009,-0.06852804
1149,0.6308707,0.6308707,-0.06852804
1153,0.6308707,0.6308707,-0.06852804
1155,0.6342734,0.6342734,-0.06852804
1157,0.6342734,0.6342734,-0.06852804
1160,0.6388841,0.6388841,-0.07132626
1162,0.6252628,0.6252628,-0.06852804
1164,0.6252628,0.6252628,-0.06852804
1167,0.6135744,0.6132555,-0.0656106
1169,0.6135744,0.6132555,-0.0656106
1171,0.6148488,0.6145305,-0.06852804
1174,0.615167,0.615167,-0.06852804
1176,0.615167,0.615167,-0.06852804
1178,0.615485,0.615167,-0.06852804
1181,0.615485,0.615167,-0.06852804
1183,0.6029587,0.6026341,-0.0656106
1185,0.6029587,0.6026341,-0.0656106
1188,0.5767518,0.5764125,-0.0656106
1190,0.5630175,0.5626699,-0.06255726
1192,0.5630175,0.5626699,-0.06255726
1196,0.5510744,0.5507192,-0.06255726
1198,0.5510744,0.5507192,-0.06255726
1200,0.5591815,0.5584812,-0.06255726
1203,0.564406,0.564406,-0.0656106
1205,0.564406,0.564406,-0.0656106
1207,0.5567266,0.556375,-0.06255726
1210,0.5567266,0.556375,-0.06255726
1212,0.5532007,0.5532007,-0.06255726
1214,0.5532007,0.5532007,-0.06255726
1217,0.564406,0.5640592,-0.0656106
1219,0.5730078,0.5730078,-0.06852804
1221,0.5730078,0.5730078,-0.06852804
1224,0.5967609,0.5967609,-0.07132626
1226,0.5967609,0.5967609,-0.07132626
1228,0.605226,0.605226,-0.07401875
1230,0.6158028,0.6158028,-0.07661668
1233,0.6158028,0.6158028,-0.07661668
1235,0.6243232,0.6240098,-0.07912937
1238,0.6243232,0.6240098,-0.07912937
1241,0.6398023,0.6398023,-0.08156469
1243,0.6398023,0.6398023,-0.08156469
1245,0.6471007,0.6471007,-0.08392937
1248,0.652221,0.6516207,-0.08622923
1250,0.652221,0.6516207,-0.08622923
1252,0.6590852,0.6584912,-0.08846933
1255,0.6590852,0.6584912,-0.08846933
1257,0.661456,0.6611602,-0.08846933
1259,0.661456,0.6611602,-0.08846933
1262,0.6638185,0.6635236,-0.08846933
1264,0.6667597,0.6661724,-0.08846933
1266,0.6667597,0.6661724,-0.08846933
1269,0.6682253,0.6679325,-0.08846933
1271,0.6682253,0.6679325,-0.08846933
1273,0.6673463,0.6664661,-0.08392937
1276,0.6667597,0.6661724,-0.08392937
1278,0.6667597,0.6661724,-0.08392937
1281,0.6655847,0.6649964,-0.08392937
1284,0.6655847,0.6649964,-0.08392937
1286,0.6638185,0.6632286,-0.08846933
1288,0.6638185,0.6632286,-0.08846933
1291,0.6443735,0.6443735,-0.08392937
1293,0.615485,0.615485,-0.07912937
1295,0.615485,0.615485,-0.07912937
1298,0.6158028,0.615485,-0.08156469
1300,0.6158028,0.615485,-0.08156469
1302,0.615167,0.6148488,-0.07912937
1305,0.6202354,0.6199199,-0.07912937
1307,0.6202354,0.6199199,-0.07912937
1309,0.6243232,0.6240098,-0.07661668
1312,0.6243232,0.6240098,-0.07661668
1314,0.6145305,0.614212,-0.07661668
1316,0.6145305,0.614212,-0.07661668
1318,0.6036074,0.6032831,-0.07132626
1321,0.6010084,0.6006827,-0.07132626
1324,0.6010084,0.6006827,-0.07132626
1326,0.6065179,0.6058724,-0.07132626
1329,0.6065179,0.6058724,-0.07132626
1331,0.6189722,0.618656,-0.07132626
1333,0.6189722,0.618656,-0.07132626
1336,0.6255757,0.6252628,-0.07132626
1338,0.6180231,0.6177064,-0.06852804
1340,0.6180231,0.6177064,-0.06852804
1343,0.6074851,0.6068404,-0.0656106
1345,0.6074851,0.6068404,-0.0656106
1347,0.5834977,0.5828267,-0.06255726
1350,0.5706123,0.5702693,-0.06255726
1352,0.5706123,0.5702693,-0.06255726
1354,0.5492961,0.5489398,-0.05934703
1357,0.5492961,0.5489398,-0.05934703
1359,0.5406791,0.5395923,-0.05595291
1361,0.5406791,0.5395923,-0.05595291
1364,0.5248867,0.5241405,-0.05233916
1367,0.5173771,0.5166202,-0.05233916
1369,0.5173771,0.5166202,-0.05233916
1372,0.5066768,0.5059038,-0.04845664
1374,0.5066768,0.5059038,-0.04845664
1376,0.5024107,0.501241,-0.05233916
1379,0.4945601,0.4937682,-0.04845664
1381,0.4945601,0.4937682,-0.04845664
1383,0.4909863,0.4901886,-0.04845664
1386,0.4909863,0.4901886,-0.04845664
1388,0.4873863,0.4869847,-0.04845664
1390,0.4873863,0.4869847,-0.04845664
1393,0.4853748,0.4841639,-0.05233916
1395,0.4841639,0.4829499,-0.05233916
1397,0.4841639,0.4829499,-0.05233916
1400,0.4825446,0.4817329,-0.04845664
1402,0.4825446,0.4817329,-0.04845664
1404,0.5008504,0.5004597,-0.05233916
1406,0.5166202,0.5166202,-0.05595291
1410,0.5166202,0.5166202,-0.05595291
1412,0.5293413,0.5293413,-0.05595291
1414,0.5293413,0.5293413,-0.05595291
1417,0.5650989,0.5647526,-0.06255726
1419,0.5650989,0.5647526,-0.06255726
1421,0.5777687,0.5781073,-0.06255726
1424,0.6032831,0.6029587,-0.07132626
1426,0.6032831,0.6029587,-0.07132626
1428,0.612617,0.6122975,-0.07132626
1431,0.612617,0.6122975,-0.07132626
1433,0.6299395,0.6299395,-0.07661668
1435,0.6299395,0.6299395,-0.07661668
1438,0.6364292,0.6364292,-0.07661668
1440,0.6467983,0.6467983,-0.08156469
1442,0.6467983,0.6467983,-0.08156469
1445,0.6507192,0.6507192,-0.08156469
1447,0.6507192,0.6507192,-0.08156469
1449,0.6558113,0.6561096,-0.08622923
1453,0.6581939,0.6581939,-0.08622923
1455,0.6581939,0.6581939,-0.08622923
1457,0.6620474,0.6623429,-0.08846933
1460,0.6620474,0.6623429,-0.08846933
1462,0.6638185,0.6638185,-0.08846933
1464,0.6638185,0.6638185,-0.08846933
1467,0.6661724,0.6658786,-0.09065409
1469,0.6691033,0.6691033,-0.08846933
1471,0.6691033,0.6691033,-0.08846933
1474,0.649214,0.6495153,-0.08846933
1476,0.649214,0.6495153,-0.08846933
1478,0.6192883,0.6192883,-0.08622923
1481,0.6170725,0.6173896,-0.08622923
1483,0.6170725,0.6173896,-0.08622923
1485,0.6135744,0.6135744,-0.08622923
1488,0.6135744,0.6135744,-0.08622923
1490,0.5970887,0.5970887,-0.08392937
1492,0.5970887,0.5970887,-0.08392937
1495,0.5709552,0.5709552,-0.08156469
1498,0.5740312,0.5740312,-0.08392937
1500,0.5740312,0.5740312,-0.08392937
1502,0.5777687,0.5777687,-0.08392937
1505,0.5777687,0.5777687,-0.08392937
1507,0.5868416,0.5865081,-0.08622923
1509,0.598725,0.598725,-0.08622923
1512,0.598725,0.598725,-0.08622923
1514,0.6065179,0.6065179,-0.08846933
1516,0.6065179,0.6065179,-0.08846933
1519,0.616438,0.616438,-0.09065409
1521,0.616438,0.616438,-0.09065409
1523,0.6224399,0.6227542,-0.09065409
1526,0.6305605,0.6305605,-0.09065409
1528,0.6305605,0.6305605,-0.09065409
1530,0.6351982,0.6351982,-0.09065409
1533,0.6351982,0.6351982,-0.09065409
1536,0.6413296,0.6407191,-0.09487279
1538,0.6413296,0.6407191,-0.09487279
1541,0.6434618,0.6431577,-0.09691329
1543,0.64589,0.6452838,-0.09487279
1545,0.64589,0.6452838,-0.09487279
1548,0.629007,0.629007,-0.09065409
1550,0.629007,0.629007,-0.09065409
1552,0.6026341,0.6026341,-0.08622923
1555,0.5858405,0.5861744,-0.08392937
1557,0.5858405,0.5861744,-0.08392937
1559,0.5591815,0.5591815,-0.08156469
1562,0.5591815,0.5591815,-0.08156469
1564,0.5478694,0.5478694,-0.07912937
1566,0.5478694,0.5478694,-0.07912937
1569,0.5293413,0.5293413,-0.07401875
1571,0.5226451,0.5222706,-0.07132626
1573,0.5226451,0.5222706,-0.07132626
1575,0.5109072,0.5109072,-0.06852804
1579,0.5109072,0.5109072,-0.06852804
1581,0.5226451,0.5226451,-0.06852804
1583,0.5388666,0.5388666,-0.07132626
1586,0.5388666,0.5388666,-0.07132626
1588,0.5355885,0.5359538,-0.07401875
1590,0.5355885,0.5359538,-0.07401875
1593,0.53008,0.5297108,-0.07132626
1595,0.53008,0.5297108,-0.07132626
1597,0.5252593,0.5252593,-0.06852804
1600,0.5177552,0.5173771,-0.06852804
1602,0.5177552,0.5173771,-0.06852804
1604,0.5143426,0.5147229,-0.0656106
1607,0.5143426,0.5147229,-0.0656106
1609,0.5101407,0.509757,-0.06852804
1611,0.5101407,0.509757,-0.06852804
1614,0.5260038,0.5263757,-0.06852804
1616,0.5496522,0.5496522,-0.06852804
1618,0.5496522,0.5496522,-0.06852804
1622,0.55778,0.5581307,-0.07132626
1624,0.55778,0.5581307,-0.07132626
1626,0.5482264,0.5485832,-0.06852804
1629,0.5403171,0.5403171,-0.06852804
1631,0.5403171,0.5403171,-0.06852804
1633,0.5286014,0.5282311,-0.06852804
1636,0.5286014,0.5282311,-0.06852804
1638,0.5203939,0.5200178,-0.07132626
1640,0.5203939,0.5200178,-0.07132626
1643,0.5135812,0.5135812,-0.0656106
1645,0.5031891,0.5031891,-0.0656106
1647,0.5031891,0.5031891,-0.0656106
1650,0.4992853,0.4992853,-0.0656106
1652,0.4992853,0.4992853,-0.0656106
1654,0.5128186,0.5128186,-0.06852804
1657,0.5374122,0.5370479,-0.07132626
1659,0.5374122,0.5370479,-0.07132626
1661,0.5467969,0.5467969,-0.07401875
1664,0.5467969,0.5467969,-0.07401875
1667,0.5767518,0.5764125,-0.07912937
1669,0.5767518,0.5764125,-0.07912937
1671,0.5878411,0.5878411,-0.07912937
1674,0.6097356,0.6094146,-0.08156469
1676,0.6097356,0.6094146,-0.08156469
1678,0.6183397,0.6180231,-0.08392937
1681,0.6183397,0.6180231,-0.08392937
1683,0.6311808,0.6305605,-0.08846933
1685,0.6364292,0.635814,-0.08846933
1688,0.6364292,0.635814,-0.08846933
1690,0.6416347,0.6413296,-0.09065409
1692,0.646193,0.64589,-0.09065409
1695,0.6504185,0.6498165,-0.09065409
1697,0.6504185,0.6498165,-0.09065409
1699,0.6543178,0.65342,-0.09278741
1702,0.6561096,0.6552143,-0.09487279
1704,0.6561096,0.6552143,-0.09487279
1707,0.6573014,0.6561096,-0.09065409
1710,0.6573014,0.6561096,-0.09065409
1712,0.6596788,0.6584912,-0.09065409
1714,0.6596788,0.6584912,-0.09065409
1717,0.6620474,0.6608641,-0.09065409
1719,0.6661724,0.6655847,-0.08846933
1721,0.6661724,0.6655847,-0.08846933
1724,0.6661724,0.6652907,-0.08846933
1726,0.6661724,0.6652907,-0.08846933
1728,0.667053,0.6661724,-0.09065409
1731,0.667053,0.6661724,-0.09065409
1733,0.667053,0.6661724,-0.09065409
1735,0.6682253,0.6673463,-0.08846933
1738,0.6682253,0.6673463,-0.08846933
1740,0.6647022,0.6638185,-0.08846933
1742,0.6647022,0.6638185,-0.08846933
1745,0.6602717,0.6596788,-0.09065409
1747,0.6590852,0.6587883,-0.09278741
1750,0.6590852,0.6587883,-0.09278741
1752,0.6587883,0.6581939,-0.09278741
1755,0.6587883,0.6581939,-0.09278741
1757,0.6596788,0.6590852,-0.09065409
1759,0.660568,0.6602717,-0.09065409
1762,0.660568,0.6602717,-0.09065409
1764,0.6617518,0.661456,-0.08846933
1766,0.6617518,0.661456,-0.08846933
1769,0.6623429,0.6620474,-0.09278741
1771,0.6623429,0.6620474,-0.09278741
1773,0.6658786,0.6647022,-0.09065409
1776,0.6664661,0.6664661,-0.09065409
1778,0.6664661,0.6664661,-0.09065409
1780,0.667053,0.667053,-0.09065409
1783,0.667053,0.667053,-0.09065409
1785,0.6679325,0.667053,-0.09065409
1787,0.6679325,0.667053,-0.09065409
1790,0.6682253,0.6676395,-0.08846933
1793,0.6685182,0.6679325,-0.08846933
1795,0.6685182,0.6679325,-0.08846933
1798,0.6676395,0.6676395,-0.09065409
1800,0.6676395,0.6676395,-0.09065409
1802,0.667053,0.6664661,-0.09065409
1805,0.6655847,0.6649964,-0.09278741
1807,0.6655847,0.6641131,-0.09278741
1809,0.6641131,0.6638185,-0.08846933
1812,0.6641131,0.6638185,-0.08846933
1814,0.6644077,0.6641131,-0.09278741
1816,0.6644077,0.6641131,-0.09278741
1819,0.6649964,0.6649964,-0.08846933
1821,0.6638185,0.6635236,-0.09278741
1823,0.6638185,0.6635236,-0.09278741
1826,0.6623429,0.6623429,-0.09065409
1828,0.6623429,0.6623429,-0.09065409
1830,0.6623429,0.6620474,-0.09278741
1833,0.6629335,0.6629335,-0.08846933
1836,0.6629335,0.6629335,-0.08846933
1838,0.6641131,0.6632286,-0.08846933
1840,0.6641131,0.6632286,-0.08846933
1843,0.6641131,0.6641131,-0.09065409
1845,0.6641131,0.6641131,-0.09065409
1847,0.6647022,0.6647022,-0.09065409
1850,0.6667597,0.6667597,-0.09065409
1852,0.6667597,0.6667597,-0.09065409
1854,0.6676395,0.667053,-0.08846933
1857,0.6676395,0.667053,-0.08846933
1859,0.6714388,0.6711472,-0.09065409
1861,0.6746368,0.6743467,-0.08846933
1864,0.6746368,0.6743467,-0.08846933
1866,0.6746368,0.6743467,-0.08846933
1868,0.6746368,0.6743467,-0.08846933
1871,0.6746368,0.6743467,-0.08846933
1873,0.6746368,0.6743467,-0.08846933
1875,0.6807005,0.6801254,-0.08846933
1879,0.6824232,0.6821364,-0.09065409
1881,0.6824232,0.6821364,-0.09065409
1883,0.6838553,0.6838553,-0.08846933
1886,0.6838553,0.6838553,-0.08846933
1888,0.6889865,0.6889865,-0.08622923
1890,0.6889865,0.6889865,-0.08622923
1893,0.6918207,0.6921035,-0.08846933
1895,0.694925,0.6954879,-0.08392937
1897,0.694925,0.6954879,-0.08392937
1900,0.6957693,0.6963314,-0.08392937
1902,0.6957693,0.6963314,-0.08392937
1904,0.6963314,0.6966124,-0.08392937
1907,0.6570037,0.6573014,-0.07912937
1909,0.6570037,0.6573014,-0.07912937
1911,0.6422443,0.6425489,-0.07661668
1914,0.6422443,0.6425489,-0.07661668
1916,0.6416347,0.6416347,-0.07912937
1918,0.6416347,0.6416347,-0.07912937
1922,0.6398023,0.6398023,-0.07912937
1924,0.6443735,0.6440698,-0.07912937
1926,0.6443735,0.6440698,-0.07912937
1928,0.6474031,0.6474031,-0.08156469
1931,0.6474031,0.6474031,-0.08156469
1933,0.6584912,0.6584912,-0.08156469
1935,0.6626383,0.6620474,-0.08156469
1938,0.6626383,0.6620474,-0.08156469
1940,0.6691033,0.6688108,-0.08156469
1942,0.6691033,0.6688108,-0.08156469
1945,0.6711472,0.6705639,-0.08156469
1947,0.6711472,0.6705639,-0.08156469
1949,0.6746368,0.6737661,-0.08392937
1952,0.6783969,0.6781085,-0.08392937
1954,0.6783969,0.6781085,-0.08392937
1956,0.6599753,0.6596788,-0.08392937
1959,0.6599753,0.6596788,-0.08392937
1961,0.644677,0.6440698,-0.07912937
1964,0.6255757,0.6252628,-0.07661668
1967,0.6255757,0.6252628,-0.07661668
1969,0.5961047,0.5961047,-0.07661668
1971,0.5961047,0.5961047,-0.07661668
1974,0.5821548,0.5821548,-0.07401875
1976,0.5821548,0.5821548,-0.07401875
1978,0.5609285,0.5612772,-0.07401875
1981,0.5517841,0.5521386,-0.07132626
1983,0.5517841,0.5521386,-0.07132626
1985,0.5377761,0.5381398,-0.07132626
1988,0.5377761,0.5381398,-0.07132626
1990,0.5326577,0.533025,-0.07132626
1992,0.5326577,0.533025,-0.07132626
1995,0.5233933,0.5241405,-0.07132626
1997,0.5200178,0.5207698,-0.07132626
1999,0.5200178,0.5207698,-0.07132626
2002,0.5143426,0.5147229,-0.07132626
2004,0.5143426,0.5147229,-0.07132626
2007,0.513962,0.5143426,-0.06852804
2010,0.5128186,0.5128186,-0.06852804
2012,0.5128186,0.5128186,-0.06852804
2014,0.5128186,0.5135812,-0.0656106
2016,0.5128186,0.5135812,-0.0656106
2019,0.5124369,0.5124369,-0.06852804
2021,0.5124369,0.5124369,-0.06852804
2023,0.5132,0.5135812,-0.0656106
2026,0.513962,0.5143426,-0.0656106
2028,0.513962,0.5143426,-0.0656106
2030,0.5151029,0.5147229,-0.06852804
2033,0.5151029,0.5147229,-0.06852804
2035,0.5147229,0.513962,-0.0656106
2037,0.5322903,0.5322903,-0.07132626
2040,0.5322903,0.5322903,-0.07132626
2042,0.5595313,0.5591815,-0.07401875
2044,0.5595313,0.5591815,-0.07401875
2048,0.5647526,0.5647526,-0.07401875
2050,0.5647526,0.5647526,-0.07401875
2052,0.569239,0.569239,-0.07132626
2055,0.5726661,0.5733491,-0.06852804
2057,0.5726661,0.5733491,-0.06852804
2059,0.5726661,0.5743721,-0.0656106
2062,0.5726661,0.5743721,-0.0656106
2064,0.5733491,0.575053,-0.05934703
2066,0.5733491,0.575053,-0.05934703
2069,0.5733491,0.5753932,-0.05934703
2071,0.5726661,0.575053,-0.05934703
2073,0.5726661,0.575053,-0.05934703
2076,0.5723243,0.5740312,-0.05934703
2078,0.5723243,0.5740312,-0.05934703
2080,0.5709552,0.5736903,-0.05595291
2083,0.5702693,0.5733491,-0.05595291
2085,0.5702693,0.5733491,-0.05595291
2087,0.5702693,0.5730078,-0.05233916
2091,0.5702693,0.5730078,-0.05233916
2093,0.5616257,0.563365,-0.06255726
2095,0.5616257,0.563365,-0.06255726
2098,0.5581307,0.5602303,-0.05934703
2100,0.583833,0.5858405,-0.06852804
2102,0.583833,0.5858405,-0.06852804
2104,0.5808088,0.5821548,-0.06852804
2107,0.5808088,0.5821548,-0.06852804
2109,0.5767518,0.5781073,-0.06852804
2111,0.569239,0.5702693,-0.07132626
2114,0.569239,0.5702693,-0.07132626
2116,0.5637122,0.5647526,-0.07132626
2118,0.5637122,0.5647526,-0.07132626
2121,0.5524929,0.5528469,-0.07132626
2123,0.5524929,0.5528469,-0.07132626
2125,0.5471546,0.5475121,-0.07132626
2128,0.5392296,0.5392296,-0.07132626
2130,0.5392296,0.5392296,-0.07132626
2132,0.5359538,0.5359538,-0.07132626
2136,0.5359538,0.5359538,-0.07132626
2138,0.530449,0.5308178,-0.07401875
2140,0.5282311,0.5282311,-0.07132626
2143,0.5282311,0.5282311,-0.07132626
2145,0.5263757,0.5263757,-0.07401875
2147,0.5248867,0.5241405,-0.07132626
2150,0.5237671,0.5230194,-0.07401875
2152,0.5237671,0.5230194,-0.07401875
2154,0.5211454,0.5207698,-0.07401875
2157,0.5203939,0.5196414,-0.07401875
2159,0.5203939,0.5196414,-0.07401875
2161,0.5188877,0.518133,-0.07132626
2164,0.5188877,0.518133,-0.07132626
2166,0.518133,0.5173771,-0.07132626
2168,0.518133,0.5173771,-0.07132626
2171,0.518133,0.5177552,-0.06852804
2173,0.5539077,0.5535544,-0.07132626
2176,0.5539077,0.5535544,-0.07132626
2179,0.5675176,0.5671728,-0.07401875
2181,0.5675176,0.5671728,-0.07401875
2183,0.5685511,0.5678623,-0.07401875
2185,0.5695826,0.569239,-0.07661668
2188,0.5695826,0.569239,-0.07661668
2190,0.5605795,0.5598809,-0.07132626
2192,0.5605795,0.5598809,-0.07132626
2195,0.55778,0.5574291,-0.07132626
2197,0.55778,0.5574291,-0.07132626
2199,0.5507192,0.5500081,-0.06852804
2202,0.5485832,0.5482264,-0.06852804
2204,0.5485832,0.5482264,-0.06852804
2206,0.5403171,0.5388666,-0.07132626
2209,0.5403171,0.5388666,-0.07132626
2211,0.5374122,0.5370479,-0.06852804
2213,0.5355885,0.5341251,-0.06852804
2216,0.5355885,0.5341251,-0.06852804
2219,0.5355885,0.5341251,-0.07132626
2221,0.5355885,0.5341251,-0.07132626
2224,0.5315546,0.53008,-0.07132626
2226,0.5315546,0.53008,-0.07132626
2228,0.5308178,0.5293413,-0.07132626
2231,0.5289715,0.5282311,-0.07401875
2233,0.5289715,0.5282311,-0.07401875
2235,0.5297108,0.5282311,-0.07401875
2238,0.5297108,0.5282311,-0.07401875
2240,0.5252593,0.5241405,-0.07401875
2242,0.5252593,0.5241405,-0.07401875
2245,0.5241405,0.5237671,-0.07132626
2247,0.5211454,0.5200178,-0.07132626
2249,0.5211454,0.5200178,-0.07132626
2252,0.5203939,0.5196414,-0.07401875
2254,0.5203939,0.5196414,-0.07401875
2256,0.5188877,0.5173771,-0.07401875
2259,0.5185105,0.5169988,-0.07401875
2262,0.5185105,0.5169988,-0.07401875
2264,0.5177552,0.5162413,-0.07661668
2267,0.5177552,0.5162413,-0.07661668
2269,0.5169988,0.5154827,-0.07661668
2271,0.5169988,0.5154827,-0.07661668
2273,0.5241405,0.5230194,-0.07661668
2276,0.5359538,0.5352231,-0.07401875
2278,0.5359538,0.5352231,-0.07401875
2280,0.5406791,0.5410409,-0.06852804
2283,0.5406791,0.5410409,-0.06852804
2285,0.5496522,0.5496522,-0.06852804
2287,0.5546138,0.5549665,-0.06852804
2290,0.5546138,0.5549665,-0.06852804
2292,0.5619739,0.563365,-0.06852804
2294,0.5619739,0.563365,-0.06852804
2297,0.5654452,0.5671728,-0.06852804
2299,0.5654452,0.5671728,-0.06852804
2301,0.5712977,0.5730078,-0.06852804
2305,0.5719823,0.5736903,-0.06852804
2307,0.5719823,0.5736903,-0.06852804
2309,0.5740312,0.5757331,-0.07401875
2312,0.5740312,0.5757331,-0.07401875
2314,0.5747126,0.5767518,-0.07401875
2316,0.5760729,0.5784457,-0.07132626
2319,0.5760729,0.5784457,-0.07132626
2321,0.5767518,0.5787839,-0.07132626
2323,0.5767518,0.5787839,-0.07132626
2326,0.5781073,0.5804718,-0.07661668
2328,0.5781073,0.5804718,-0.07661668
2330,0.5787839,0.5804718,-0.07401875
2333,0.5797972,0.5821548,-0.07401875
2335,0.5797972,0.5821548,-0.07401875
2337,0.5808088,0.5828267,-0.07132626
2340,0.5808088,0.5828267,-0.07132626
2342,0.5797972,0.5818186,-0.07132626
2344,0.5797972,0.5818186,-0.07132626
2348,0.5787839,0.5808088,-0.07401875
2350,0.5784457,0.5797972,-0.07661668
2352,0.5784457,0.5797972,-0.07661668
2355,0.5781073,0.5797972,-0.07401875
2357,0.5781073,0.5797972,-0.07401875
2359,0.5764125,0.5781073,-0.07401875
2361,0.5760729,0.5777687,-0.07401875
2364,0.5760729,0.5777687,-0.07401875
2366,0.5767518,0.5781073,-0.07401875
2368,0.5767518,0.5781073,-0.07401875
2371,0.5767518,0.5777687,-0.07401875
2373,0.5767518,0.5777687,-0.07401875
2375,0.5743721,0.5757331,-0.07912937
2378,0.5736903,0.5747126,-0.07912937
2380,0.5736903,0.5747126,-0.07912937
2382,0.5706123,0.5716401,-0.07661668
2385,0.5685511,0.569239,-0.07661668
2387,0.5668277,0.5682068,-0.07661668
2390,0.5640592,0.5650989,-0.07912937
2393,0.5640592,0.5650989,-0.07912937
2395,0.5637122,0.564406,-0.07912937
2397,0.5637122,0.564406,-0.07912937
2400,0.5623221,0.563365,-0.08156469
2402,0.5623221,0.563365,-0.08156469
2404,0.5616257,0.5626699,-0.07912937
2407,0.5616257,0.563365,-0.07912937
2409,0.5616257,0.563365,-0.07912937
2411,0.5616257,0.563365,-0.07912937
2414,0.5616257,0.563365,-0.07912937
2416,0.5616257,0.5626699,-0.08156469
2418,0.5609285,0.5626699,-0.08156469
2421,0.5609285,0.5626699,-0.08156469
2423,0.5616257,0.5630175,-0.07912937
2425,0.5616257,0.5630175,-0.07912937
2428,0.5626699,0.564406,-0.08156469
2430,0.5626699,0.564406,-0.08156469
2433,0.5612772,0.5626699,-0.08392937
2436,0.5588315,0.5602303,-0.08156469
2438,0.5588315,0.5602303,-0.08156469
2440,0.5595313,0.5609285,-0.08156469
2443,0.5595313,0.5609285,-0.08156469
2445,0.5605795,0.5616257,-0.08392937
2447,0.5605795,0.5616257,-0.08392937
2449,0.5591815,0.5605795,-0.08156469
2452,0.5574291,0.5591815,-0.07912937
2454,0.5574291,0.5591815,-0.07912937
2456,0.556375,0.55778,-0.08156469
2459,0.556375,0.55778,-0.08156469
2461,0.5556712,0.5570779,-0.08156469
2463,0.55778,0.5588315,-0.08156469
2466,0.55778,0.5588315,-0.08156469
2468,0.5609285,0.5619739,-0.07912937
2470,0.5609285,0.5619739,-0.07912937
2473,0.563365,0.564406,-0.07912937
2476,0.563365,0.564406,-0.07912937
2478,0.5650989,0.5664824,-0.07912937
2481,0.5647526,0.5661368,-0.08156469
2483,0.5647526,0.5661368,-0.08156469
2485,0.5647526,0.5657911,-0.08392937
2488,0.5647526,0.5657911,-0.08392937
2490,0.583833,0.5855064,-0.08392937
2492,0.5997046,0.6010084,-0.08622923
2495,0.5997046,0.6010084,-0.08622923
2497,0.6314908,0.6330382,-0.09065409
2499,0.6314908,0.6330382,-0.09065409
2502,0.6471007,0.6486109,-0.09065409
2504,0.6471007,0.6486109,-0.09065409
2506,0.645587,0.6471007,-0.08622923
2509,0.644677,0.64589,-0.08622923
2511,0.644677,0.64589,-0.08622923
2513,0.6555129,0.6570037,-0.08622923
2516,0.6555129,0.6570037,-0.08622923
2519,0.6652907,0.667053,-0.08622923
2521,0.6652907,0.667053,-0.08622923
2524,0.6737661,0.675796,-0.08622923
2526,0.6661724,0.6682253,-0.08392937
2528,0.6661724,0.6682253,-0.08392937
2531,0.6691033,0.6708556,-0.08392937
2533,0.6691033,0.6708556,-0.08392937
2535,0.6760855,0.6783969,-0.08622923
2537,0.6824232,0.6847132,-0.08392937
2540,0.6824232,0.6847132,-0.08392937
2542,0.7002546,0.7024865,-0.08622923
2544,0.7002546,0.7024865,-0.08622923
2547,0.690405,0.6926687,-0.08392937
2549,0.690405,0.6926687,-0.08392937
2551,0.6824232,0.6844273,-0.08392937
2554,0.6807005,0.6829963,-0.08392937
2556,0.6807005,0.6829963,-0.08392937
2558,0.6852845,0.6872803,-0.08392937
2562,0.6852845,0.6872803,-0.08392937
2564,0.6889865,0.6909717,-0.08622923
2566,0.6679325,0.6696879,-0.08622923
2569,0.6679325,0.6696879,-0.08622923
2571,0.6723125,0.6740565,-0.08846933
2573,0.6723125,0.6740565,-0.08846933
2576,0.675796,0.6775311,-0.08846933
2578,0.675796,0.6775311,-0.08846933
2580,0.6673463,0.6688108,-0.08846933
2583,0.6575991,0.659382,-0.08622923
2585,0.6575991,0.659382,-0.08622923
2587,0.6501176,0.6516207,-0.08622923
2590,0.6501176,0.6516207,-0.08622923
2592,0.628073,0.629007,-0.08392937
2594,0.6199199,0.6211812,-0.08392937
2597,0.6199199,0.6211812,-0.08392937
2599,0.6135744,0.6148488,-0.08392937
2601,0.6135744,0.6148488,-0.08392937
2605,0.6032831,0.6049027,-0.08156469
2607,0.6032831,0.6049027,-0.08156469
2609,0.5993783,0.6006827,-0.07912937
2612,0.5961047,0.5974163,-0.07912937
2614,0.5961047,0.5974163,-0.07912937
2616,0.589503,0.5908293,-0.07661668
2619,0.589503,0.5908293,-0.07661668
2621,0.5888388,0.5901666,-0.08156469
2623,0.5888388,0.5901666,-0.08156469
2625,0.5881739,0.5891711,-0.08156469
2628,0.5865081,0.5881739,-0.07401875
2630,0.5865081,0.5881739,-0.07401875
2632,0.5865081,0.5885065,-0.07912937
2635,0.5865081,0.5885065,-0.07912937
2637,0.5868416,0.5881739,-0.07661668
2639,0.618656,0.6205508,-0.08622923
2642,0.618656,0.6205508,-0.08622923
2644,0.6308707,0.6327289,-0.09065409
2647,0.6308707,0.6327289,-0.09065409
2650,0.6314908,0.6330382,-0.09065409
2652,0.6314908,0.6330382,-0.09065409
2654,0.6321102,0.6339648,-0.08846933
2657,0.6452838,0.6474031,-0.09278741
2659,0.6452838,0.6474031,-0.09278741
2661,0.651921,0.65342,-0.09487279
2664,0.651921,0.65342,-0.09487279
2666,0.6483091,0.6498165,-0.09487279
2668,0.6449805,0.6467983,-0.09487279
2671,0.6449805,0.6467983,-0.09487279
2673,0.6546168,0.6558113,-0.09891172
2675,0.6546168,0.6558113,-0.09891172
2678,0.6641131,0.6655847,-0.09891172
2680,0.6641131,0.6655847,-0.09891172
2682,0.6772422,0.6786853,-0.1008706
2685,0.688134,0.6892704,-0.1027921
2688,0.688134,0.6892704,-0.1027921
2690,0.6720214,0.6731851,-0.1008706
2693,0.6720214,0.6731851,-0.1008706
2695,0.6655847,0.667053,-0.09891172
2697,0.6655847,0.667053,-0.09891172
2700,0.6531205,0.6546168,-0.09691329
2702,0.6428534,0.6443735,-0.09487279
2704,0.6428534,0.6443735,-0.09487279
2707,0.633656,0.6355062,-0.09278741
2709,0.633656,0.6355062,-0.09278741
2711,0.6196041,0.6214961,-0.08622923
2713,0.6314908,0.6330382,-0.08622923
2716,0.6314908,0.6330382,-0.08622923
2718,0.6407191,0.6428534,-0.08846933
2720,0.6407191,0.6428534,-0.08846933
2723,0.6385778,0.6404136,-0.08622923
2725,0.6385778,0.6404136,-0.08622923
2727,0.6364292,0.6382713,-0.08156469
2731,0.6299395,0.6318005,-0.08156469
2733,0.6299395,0.6318005,-0.08156469
2735,0.6249498,0.6265134,-0.08156469
2738,0.6249498,0.6265134,-0.08156469
2740,0.6158028,0.6180231,-0.07912937
2742,0.6119779,0.6138933,-0.07661668
2745,0.6119779,0.6138933,-0.07661668
2747,0.6071628,0.608772,-0.07401875
2749,0.6071628,0.608772,-0.07401875
2752,0.6029587,0.6049027,-0.07401875
2754,0.6029587,0.6049027,-0.07401875
2756,0.5967609,0.598725,-0.07132626
2759,0.5941319,0.5964329,-0.06852804
2761,0.5941319,0.5964329,-0.06852804
2763,0.5911604,0.5931431,-0.06852804
2766,0.5911604,0.5931431,-0.06852804
2768,0.5901666,0.591822,-0.06852804
2770,0.5878411,0.589503,-0.0656106
2774,0.5878411,0.589503,-0.0656106
2776,0.5845029,0.5865081,-0.06255726
2778,0.5845029,0.5865081,-0.06255726
2781,0.5814822,0.5831623,-0.0656106
2783,0.5814822,0.5831623,-0.0656106
2785,0.5814822,0.5831623,-0.0656106
2788,0.5814822,0.5831623,-0.0656106
2790,0.5814822,0.5831623,-0.0656106
2792,0.5808088,0.5828267,-0.0656106
2794,0.5808088,0.5828267,-0.0656106
2797,0.5993783,0.6013339,-0.06852804
2799,0.5993783,0.6013339,-0.06852804
2801,0.6286958,0.6308707,-0.07132626
2804,0.6296288,0.6314908,-0.07132626
2806,0.6296288,0.6314908,-0.07132626
2808,0.6318005,0.633656,-0.07132626
2811,0.6318005,0.633656,-0.07132626
2813,0.645587,0.6477052,-0.07132626
2816,0.6673463,0.6693957,-0.07661668
2819,0.6673463,0.6693957,-0.07661668
2821,0.6632286,0.6652907,-0.07661668
2823,0.6632286,0.6652907,-0.07661668
2826,0.6584912,0.6608641,-0.07401875
2828,0.6584912,0.6608641,-0.07401875
2830,0.6498165,0.652221,-0.07401875
2833,0.6379647,0.6404136,-0.07401875
2835,0.6379647,0.6404136,-0.07401875
2837,0.6483091,0.6507192,-0.07661668
2840,0.6483091,0.6507192,-0.07661668
2842,0.6649964,0.6679325,-0.07912937
2844,0.6778198,0.680413,-0.07912937
2847,0.6778198,0.680413,-0.07912937
2849,0.6884183,0.6912548,-0.08156469
2851,0.6884183,0.6912548,-0.08156469
2854,0.7074825,0.7102429,-0.08622923
2856,0.7074825,0.7102429,-0.08622923
2859,0.7230757,0.7252374,-0.09278741
2862,0.7116191,0.7140896,-0.09065409
2864,0.7116191,0.7140896,-0.09065409
2866,0.6954879,0.6982958,-0.08846933
2869,0.6954879,0.6982958,-0.08846933
2871,0.6898379,0.6926687,-0.08846933
2873,0.6912548,0.6940797,-0.08846933
2876,0.6912548,0.6940797,-0.08846933
2878,0.6935157,0.6963314,-0.09065409
2880,0.6935157,0.6963314,-0.09065409
2882,0.7019292,0.7049889,-0.09065409
2885,0.7019292,0.7049889,-0.09065409
2887,0.7138155,0.7168246,-0.09278741
2889,0.719821,0.7222635,-0.09278741
2892,0.719821,0.7222635,-0.09278741
2894,0.7281993,0.7306137,-0.09487279
2896,0.7281993,0.7306137,-0.09487279
2899,0.7314168,0.7338206,-0.09487279
2902,0.7314168,0.7338206,-0.09487279
2904,0.7375443,0.7399282,-0.1008706
2907,0.7401926,0.742568,-0.09891172
2909,0.7401926,0.742568,-0.09891172
2911,0.7441474,0.7465102,-0.1008706
2914,0.7441474,0.7465102,-0.1008706
2916,0.7451985,0.7472962,-0.1027921
2918,0.7470343,0.749649,-0.1027921
2921,0.7470343,0.749649,-0.1027921
2923,0.7467723,0.7488656,-0.1027921
2925,0.7467723,0.7488656,-0.1027921
2928,0.7465102,0.7488656,-0.1027921
2930,0.7465102,0.7488656,-0.1027921
2932,0.747558,0.749649,-0.1008706
2935,0.7486043,0.7512136,-0.09891172
2937,0.7486043,0.7512136,-0.09891172
2939,0.7470343,0.749649,-0.09891172
2942,0.7470343,0.749649,-0.09891172
2945,0.7459858,0.7486043,-0.09487279
2947,0.7462481,0.7486043,-0.09487279
2950,0.7462481,0.7486043,-0.09487279
2952,0.7465102,0.7491269,-0.09487279
2954,0.7465102,0.7491269,-0.09487279
2957,0.7483428,0.7509531,-0.09487279
2959,0.7483428,0.7509531,-0.09487279
2961,0.7491269,0.7512136,-0.09691329
2964,0.7480813,0.7506924,-0.09487279
2966,0.7480813,0.7506924,-0.09487279
2968,0.7483428,0.7504317,-0.09487279
2970,0.7483428,0.7504317,-0.09487279
2973,0.7465102,0.7488656,-0.09278741
2975,0.7465102,0.7488656,-0.09278741
2977,0.7449358,0.7467723,-0.09278741
2980,0.7457234,0.7480813,-0.09065409
2982,0.7457234,0.7480813,-0.09065409
2984,0.7472962,0.7499101,-0.09065409
2988,0.7472962,0.7499101,-0.09065409
2990,0.7459858,0.7488656,-0.08846933
2992,0.7444103,0.7467723,-0.08846933
2995,0.7444103,0.7467723,-0.08846933
2997,0.7441474,0.7467723,-0.09065409
2999,0.7441474,0.7467723,-0.09065409
3002,0.7436213,0.7462481,-0.08846933
3004,0.7436213,0.7462481,-0.08846933
3006,0.7433581,0.7459858,-0.08846933
3009,0.742568,0.745461,-0.08392937
3011,0.742568,0.745461,-0.08392937
3013,0.7441474,0.7467723,-0.08622923
3016,0.7441474,0.7467723,-0.08622923
3018,0.7457234,0.7488656,-0.08622923
3020,0.7467723,0.749388,-0.08392937
3023,0.7467723,0.749388,-0.08392937
3025,0.7478197,0.7504317,-0.08622923
3027,0.7478197,0.7504317,-0.08622923
3031,0.749388,0.7522548,-0.08622923
3033,0.749388,0.7522548,-0.08622923
3035,0.7519946,0.7548515,-0.08846933
3038,0.7519946,0.7545922,-0.08622923
3040,0.7519946,0.7545922,-0.08622923
3042,0.7522548,0.7548515,-0.08846933
3045,0.7522548,0.7548515,-0.08846933
3047,0.7519946,0.7545922,-0.08392937
3049,0.7519946,0.7540734,-0.08846933
3052,0.7519946,0.7540734,-0.08846933
3054,0.7512136,0.7538139,-0.08846933
3056,0.7512136,0.7538139,-0.08846933
3058,0.7509531,0.7532945,-0.08846933
3061,0.7509531,0.7532945,-0.08846933
3063,0.751474,0.7538139,-0.08622923
3065,0.7522548,0.7545922,-0.08846933
3068,0.7522548,0.7545922,-0.08846933
3070,0.7535542,0.7561465,-0.08622923
3073,0.7535542,0.7561465,-0.08622923
3076,0.7535542,0.7566639,-0.08392937
3078,0.7535542,0.7566639,-0.08392937
3080,0.7545922,0.7574393,-0.08622923
3083,0.7545922,0.7576976,-0.08392937
3085,0.7545922,0.7576976,-0.08392937
3087,0.7548515,0.7576976,-0.08622923
3090,0.7548515,0.7576976,-0.08622923
3092,0.7530347,0.7558876,-0.08392937
3094,0.7527748,0.7561465,-0.08622923
3097,0.7527748,0.7561465,-0.08622923
3099,0.7535542,0.7566639,-0.08846933
3101,0.7535542,0.7566639,-0.08846933
3104,0.7538139,0.7569224,-0.08392937
3106,0.7538139,0.7569224,-0.08392937
3108,0.7543329,0.7574393,-0.08622923
3111,0.7543329,0.7576976,-0.09065409
3113,0.7543329,0.7576976,-0.09065409
3116,0.7527748,0.7558876,-0.08622923
3119,0.7527748,0.7558876,-0.08622923
3121,0.7504317,0.7538139,-0.09065409
3123,0.7499101,0.7532945,-0.08846933
3126,0.7499101,0.7532945,-0.08846933
3128,0.749649,0.7532945,-0.08846933
3130,0.749649,0.7532945,-0.08846933
3133,0.7517344,0.7548515,-0.09065409
3135,0.7517344,0.7548515,-0.09065409
3137,0.7525149,0.7558876,-0.08846933
3140,0.7532945,0.7569224,-0.08846933
3142,0.7532945,0.7569224,-0.08846933
3144,0.7548515,0.7579558,-0.08846933
3146,0.7548515,0.7579558,-0.08846933
3149,0.7569224,0.7600183,-0.08846933
3151,0.7569224,0.7600183,-0.08846933
3153,0.760533,0.7636142,-0.08622923
3156,0.7589878,0.7625886,-0.08622923
3159,0.7589878,0.7625886,-0.08622923
3161,0.7574393,0.7610474,-0.08392937
3164,0.7574393,0.7610474,-0.08392937
3166,0.7571809,0.7607903,-0.08392937
3168,0.7566639,0.760533,-0.08846933
3171,0.7566639,0.760533,-0.08846933
3173,0.7538139,0.7579558,-0.08622923
3175,0.7538139,0.7579558,-0.08622923
3178,0.749649,0.7538139,-0.08392937
3180,0.749649,0.7538139,-0.08392937
3182,0.7465102,0.7506924,-0.08392937
3185,0.7420408,0.7465102,-0.08622923
3187,0.7420408,0.7465102,-0.08622923
3189,0.7444103,0.7486043,-0.08622923
3192,0.7444103,0.7486043,-0.08622923
3194,0.7462481,0.7506924,-0.08846933
3196,0.7488656,0.7530347,-0.09065409
3200,0.7488656,0.7530347,-0.09065409
3202,0.7509531,0.7545922,-0.09691329
3204,0.7509531,0.7545922,-0.09691329
3207,0.7457234,0.7504317,-0.08622923
3209,0.7457234,0.7504317,-0.08622923
3211,0.741777,0.7465102,-0.08392937
3214,0.7335538,0.7401926,-0.07401875
3216,0.7335538,0.7401926,-0.07401875
3218,0.7298098,0.7364823,-0.06852804
3221,0.7298098,0.7364823,-0.06852804
3223,0.7252374,0.7330202,-0.06255726
3225,0.7238871,0.7322189,-0.05934703
3228,0.7238871,0.7322189,-0.05934703
3230,0.7217214,0.7308815,-0.05233916
3232,0.7217214,0.7308815,-0.05233916
3234,0.7209076,0.7306137,-0.05233916
3237,0.7209076,0.7306137,-0.05233916
3239,0.7192771,0.729005,-0.04423466
3241,0.7181882,0.7284679,-0.04423466
3245,0.7181882,0.7284679,-0.04423466
3247,0.7165515,0.7273927,-0.04845664
3249,0.7165515,0.7273927,-0.04845664
3252,0.7160051,0.7268545,-0.03956468
3254,0.7160051,0.7268545,-0.03956468
3256,0.7157319,0.7265852,-0.04423466
3259,0.7157319,0.7271236,-0.03956468
3261,0.7157319,0.7271236,-0.03956468
3263,0.7170975,0.7276617,-0.04423466
3266,0.7170975,0.7276617,-0.04423466
3268,0.7170975,0.7279305,-0.03956468
3270,0.7181882,0.729005,-0.03956468
3273,0.7181882,0.729005,-0.03956468
3275,0.719005,0.7298098,-0.03956468
3277,0.719005,0.7298098,-0.03956468
3280,0.7192771,0.7303458,-0.03426402
3282,0.7192771,0.7303458,-0.03426402
3284,0.721179,0.7322189,-0.03426402
3288,0.7217214,0.7324861,-0.03426402
3290,0.7217214,0.7324861,-0.03426402
3292,0.7236168,0.7346201,-0.03426402
3295,0.7236168,0.7346201,-0.03426402
3297,0.7241574,0.7351527,-0.03956468
3299,0.7252374,0.7362165,-0.03426402
3302,0.7252374,0.7362165,-0.03426402
3304,0.7257769,0.7370135,-0.03426402
3306,0.7257769,0.7370135,-0.03426402
3309,0.7265852,0.7372789,-0.03426402
3311,0.7265852,0.7372789,-0.03426402
3313,0.7265852,0.7378095,-0.03426402
3316,0.7265852,0.7378095,-0.03426402
3318,0.7265852,0.7378095,-0.03426402
3320,0.7265852,0.7372789,-0.03426402
3322,0.7265852,0.7372789,-0.03426402
3325,0.7284679,0.7388696,-0.03956468
3328,0.7287365,0.7393991,-0.03426402
3330,0.7287365,0.7393991,-0.03426402
3333,0.7343537,0.7446731,-0.04423466
3335,0.7343537,0.7446731,-0.04423466
3337,0.7362165,0.7465102,-0.04423466
3340,0.7362165,0.7465102,-0.04423466
3342,0.7409853,0.751474,-0.04845664
3344,0.742568,0.7530347,-0.05233916
3347,0.742568,0.7530347,-0.05233916
3349,0.7378095,0.7486043,-0.05233916
3351,0.7378095,0.7486043,-0.05233916
3354,0.7359507,0.7470343,-0.05595291
3356,0.7359507,0.7470343,-0.05595291
3358,0.7322189,0.7436213,-0.05934703
3361,0.7265852,0.7380747,-0.05934703
3363,0.7265852,0.7380747,-0.05934703
3365,0.7238871,0.7356848,-0.05934703
3368,0.7238871,0.7356848,-0.05934703
3371,0.7187329,0.7308815,-0.05934703
3373,0.7160051,0.7284679,-0.05934703
3376,0.7160051,0.7284679,-0.05934703
3378,0.7121689,0.7249676,-0.05934703
3380,0.7121689,0.7249676,-0.05934703
3383,0.7138155,0.7273927,-0.05934703
3385,0.7138155,0.7273927,-0.05934703
3387,0.717643,0.7319516,-0.05233916
3390,0.7195491,0.7340872,-0.05233916
3392,0.7195491,0.7340872,-0.05233916
3394,0.7209076,0.7354187,-0.05233916
3397,0.7209076,0.7354187,-0.05233916
3399,0.7380747,0.7527748,-0.04423466
3401,0.7543329,0.7689767,-0.03426402
3403,0.7543329,0.7689767,-0.03426402
3406,0.762332,0.7770769,-0.03426402
3408,0.762332,0.7770769,-0.03426402
3410,0.776825,0.7910526,-0.02797646
3414,0.776825,0.7910526,-0.02797646
3416,0.783097,0.7972127,-0.01978234
3418,0.7875819,0.8021067,-0.01978234
3421,0.7875819,0.8021067,-0.01978234
3423,0.7967216,0.8110828,0
3425,0.7967216,0.8110828,0
3428,0.8006416,0.8149337,0
3430,0.8006416,0.8149337,0
3432,0.7785863,0.7920414,-0.01978234
3435,0.7702479,0.783097,-0.01978234
3437,0.7702479,0.783097,-0.01978234
3439,0.7284679,0.7375443,-0.04423466
3442,0.7284679,0.7375443,-0.04423466
3444,0.7127182,0.7200928,-0.04845664
3446,0.6815624,0.6861406,-0.06255726
3449,0.6815624,0.6861406,-0.06255726
3451,0.6664661,0.6696879,-0.06852804
3453,0.6664661,0.6696879,-0.06852804
3457,0.6385778,0.6388841,-0.08392937
3459,0.6385778,0.6388841,-0.08392937
3461,0.6255757,0.6243232,-0.09065409
3464,0.615485,0.6135744,-0.09487279
3466,0.615485,0.6135744,-0.09487279
3468,0.5983981,0.5944612,-0.1027921
3471,0.5983981,0.5944612,-0.1027921
3473,0.5928131,0.5881739,-0.1065312
3475,0.587175,0.5821548,-0.1101434
3478,0.587175,0.5821548,-0.1101434
3480,0.5811456,0.5753932,-0.1136409
3482,0.5811456,0.5753932,-0.1136409
3485,0.5777687,0.5719823,-0.1136409
3487,0.5777687,0.5719823,-0.1136409
3489,0.5726661,0.5664824,-0.1153499
3491,0.5706123,0.5640592,-0.1170339
3494,0.5706123,0.5640592,-0.1170339
3496,0.5675176,0.5609285,-0.1186941
3499,0.5675176,0.5609285,-0.1186941
3502,0.5661368,0.5588315,-0.1203313
3504,0.5612772,0.5542608,-0.1203313
3506,0.5612772,0.5542608,-0.1203313
3509,0.5584812,0.5510744,-0.1219466
3511,0.5584812,0.5510744,-0.1219466
3513,0.5801346,0.5753932,-0.1101434
3516,0.5801346,0.5753932,-0.1101434
3518,0.6003569,0.5974163,-0.09891172
3520,0.6431577,0.6437659,-0.07661668
3523,0.6431577,0.6437659,-0.07661668
3525,0.6647022,0.667053,-0.06852804
3527,0.6647022,0.667053,-0.06852804
3530,0.6829963,0.6869956,-0.05934703
3532,0.6829963,0.6869956,-0.05934703
3534,0.7181882,0.7246976,-0.04423466
3537,0.7316842,0.7388696,-0.03426402
3539,0.7316842,0.7388696,-0.03426402
3542,0.7512136,0.7600183,-0.01978234
3545,0.7512136,0.7600183,-0.01978234
3547,0.7587299,0.7682129,-0.01978234
3549,0.7702479,0.7805943,-0.01978234
3552,0.7702479,0.7805943,-0.01978234
3554,0.7750598,0.7855918,0
3556,0.7750598,0.7855918,0
3559,0.782347,0.7940154,0
3561,0.782347,0.7940154,0
3563,0.7855918,0.7972127,0
3566,0.7890712,0.8013745,0
3568,0.7890712,0.8013745,0
3570,0.7910526,0.8033255,0
3573,0.7910526,0.8033255,0
3575,0.776825,0.7900625,0
3577,0.7722777,0.7855918,0
3579,0.7722777,0.7855918,0
3582,0.7592455,0.7727842,0
3585,0.7592455,0.7727842,0
3587,0.7551107,0.7689767,-0.01978234
3590,0.7551107,0.7689767,-0.01978234
3592,0.7436213,0.7579558,-0.01978234
3594,0.7399282,0.7543329,-0.01978234
3597,0.7399282,0.7543329,-0.01978234
3599,0.7380747,0.7530347,-0.01978234
3601,0.7380747,0.7530347,-0.01978234
3604,0.7383398,0.7527748,-0.02797646
3606,0.7383398,0.7527748,-0.02797646
3608,0.7303458,0.7449358,-0.02797646
3611,0.7279305,0.7423044,-0.01978234
3613,0.7279305,0.7423044,-0.01978234
3615,0.7203645,0.7343537,-0.03426402
3618,0.7203645,0.7343537,-0.03426402
3620,0.7181882,0.7319516,-0.03426402
3622,0.7173703,0.7311491,-0.03426402
3625,0.7173703,0.7311491,-0.03426402
3628,0.7173703,0.7308815,-0.03426402
3630,0.7173703,0.7308815,-0.03426402
3633,0.721179,0.7346201,-0.02797646
3635,0.721179,0.7346201,-0.02797646
3637,0.7228051,0.7362165,-0.02797646
3640,0.7246976,0.7378095,-0.02797646
3642,0.7246976,0.7378095,-0.02797646
3644,0.7255072,0.7388696,-0.03426402
3647,0.7255072,0.7388696,-0.03426402
3649,0.7281993,0.7412493,-0.03426402
3651,0.7327532,0.7451985,-0.03426402
3654,0.7327532,0.7451985,-0.03426402
3656,0.7343537,0.7465102,-0.03426402
3658,0.7343537,0.7465102,-0.03426402
3661,0.7351527,0.7472962,-0.03426402
3663,0.7351527,0.7472962,-0.03426402
3665,0.7351527,0.7472962,-0.03426402
3667,0.7351527,0.7472962,-0.03426402
3671,0.7351527,0.7472962,-0.03426402
3673,0.7303458,0.7420408,-0.03956468
3675,0.7303458,0.7420408,-0.03956468
3678,0.729005,0.7404569,-0.03956468
3680,0.7263159,0.7375443,-0.04423466
3682,0.7263159,0.7375443,-0.04423466
3685,0.7255072,0.7367479,-0.04423466
3687,0.7255072,0.7367479,-0.04423466
3689,0.7206361,0.7314168,-0.04423466
3692,0.7206361,0.7314168,-0.04423466
3694,0.719005,0.7298098,-0.04423466
3696,0.7162784,0.7263159,-0.04845664
3699,0.7162784,0.7263159,-0.04845664
3701,0.7149112,0.7255072,-0.04423466
3703,0.7149112,0.7255072,-0.04423466
3706,0.6786853,0.6892704,-0.03956468
3708,0.6786853,0.6892704,-0.03956468
3710,0.6649964,0.6755064,-0.03956468
3714,0.6649964,0.6755064,-0.03426402
3716,0.6649964,0.6755064,-0.03426402
3718,0.6644077,0.6752167,-0.03956468
3721,0.6644077,0.6752167,-0.03956468
3723,0.6682253,0.6792617,-0.03956468
3725,0.6731851,0.6844273,-0.03426402
3728,0.6731851,0.6844273,-0.03426402
3730,0.6783969,0.6895542,-0.03956468
3732,0.6783969,0.6895542,-0.03956468
3735,0.6849989,0.6966124,-0.03426402
3737,0.6849989,0.6966124,-0.03426402
3739,0.6887025,0.7002546,-0.03956468
3742,0.6937978,0.7055438,-0.03956468
3744,0.6937978,0.7055438,-0.03956468
3746,0.6963314,0.7072059,-0.03426402
3749,0.6963314,0.7072059,-0.03426402
3751,0.6988559,0.7096917,-0.03956468
3753,0.7005339,0.7116191,-0.03426402
3756,0.7005339,0.7116191,-0.03426402
3759,0.7019292,0.7129927,-0.03956468
3761,0.7027649,0.7138155,-0.03956468
3763,0.7047113,0.7154584,-0.04423466
3766,0.7047113,0.7154584,-0.04423466
3768,0.7055438,0.7165515,-0.03956468
3770,0.708588,0.7192771,-0.03956468
3773,0.708588,0.7192771,-0.03956468
3775,0.7107937,0.7214502,-0.04423466
3777,0.7107937,0.7214502,-0.04423466
3780,0.7127182,0.7228051,-0.03956468
3782,0.7124436,0.7230757,-0.04423466
3784,0.7124436,0.7230757,-0.04423466
3787,0.7143636,0.7249676,-0.03956468
3789,0.7143636,0.7249676,-0.03956468
3791,0.7165515,0.7265852,-0.03956468
3794,0.7165515,0.7265852,-0.03956468
3796,0.7184606,0.7287365,-0.03956468
3799,0.719005,0.7295417,-0.03956468
3802,0.719005,0.7295417,-0.03956468
3804,0.7192771,0.7298098,-0.03426402
3806,0.7192771,0.7298098,-0.03426402
3809,0.717643,0.7279305,-0.03956468
3811,0.717643,0.7279305,-0.03956468
3813,0.7165515,0.7273927,-0.03956468
3816,0.7143636,0.7246976,-0.04423466
3818,0.7143636,0.7246976,-0.04423466
3820,0.7132671,0.7241574,-0.04423466
3823,0.7132671,0.7241574,-0.04423466
3825,0.7102429,0.7217214,-0.03956468
3827,0.709416,0.7206361,-0.04423466
3830,0.709416,0.7206361,-0.04423466
3832,0.709416,0.7206361,-0.04423466
3834,0.709416,0.7206361,-0.04423466
3837,0.709416,0.7206361,-0.04423466
3840,0.709416,0.7206361,-0.04423466
3842,0.7083117,0.7195491,-0.03956468
3844,0.707759,0.7192771,-0.04845664
3847,0.707759,0.7192771,-0.04845664
3849,0.7066523,0.7179157,-0.03956468
3851,0.7066523,0.7179157,-0.03956468
3854,0.7060983,0.717643,-0.03956468
3856,0.7047113,0.7162784,-0.03956468
3858,0.7047113,0.7162784,-0.03956468
3861,0.7041557,0.7157319,-0.03956468
3863,0.7041557,0.7157319,-0.03956468
3865,0.7047113,0.7162784,-0.03956468
3868,0.7047113,0.7162784,-0.03956468
3870,0.7047113,0.7162784,-0.03426402
3872,0.7010924,0.7121689,-0.03956468
3875,0.7010924,0.7121689,-0.03956468
3877,0.6994157,0.7105184,-0.03956468
3879,0.6994157,0.7105184,-0.03956468
3883,0.6974546,0.708588,-0.03426402
3885,0.6974546,0.708588,-0.03426402
3887,0.6966124,0.7083117,-0.03426402
3890,0.6963314,0.707759,-0.03956468
3892,0.6963314,0.707759,-0.03956468
3894,0.6952065,0.7066523,-0.03426402
3897,0.6952065,0.7066523,-0.03426402
3899,0.6954879,0.7069291,-0.03426402
3901,0.6960504,0.7072059,-0.03426402
3904,0.6960504,0.7072059,-0.03426402
3906,0.6980155,0.7091401,-0.02797646
3908,0.6980155,0.7091401,-0.02797646
3911,0.6985759,0.7099674,-0.02797646
3913,0.6985759,0.7099674,-0.02797646
3915,0.6994157,0.7107937,-0.02797646
3918,0.7005339,0.711894,-0.02797646
3920,0.7005339,0.711894,-0.02797646
3922,0.6988559,0.7096917,-0.02797646
3926,0.6988559,0.7096917,-0.02797646
3928,0.6982958,0.7091401,-0.01978234
3930,0.6996954,0.7102429,-0.02797646
3932,0.6996954,0.7102429,-0.02797646
3935,0.7019292,0.711894,-0.02797646
3937,0.7019292,0.711894,-0.02797646
3939,0.7083117,0.7181882,-0.03426402
3942,0.7083117,0.7181882,-0.03426402
3944,0.7192771,0.7268545,-0.04423466
3946,0.7238871,0.7306137,-0.05233916
3949,0.7238871,0.7306137,-0.05233916
3951,0.7306137,0.7364823,-0.05595291
3953,0.7306137,0.7364823,-0.05595291
3956,0.7322189,0.7370135,-0.06255726
3958,0.7343537,0.7380747,-0.07132626
3960,0.7343537,0.7380747,-0.07132626
3963,0.7370135,0.7404569,-0.07401875
3965,0.7370135,0.7404569,-0.07401875
3968,0.7391344,0.7420408,-0.07661668
3971,0.7391344,0.7420408,-0.07661668
3973,0.7420408,0.7438844,-0.08156469
3975,0.742568,0.7441474,-0.08156469
3978,0.742568,0.7441474,-0.08156469
3980,0.7420408,0.7438844,-0.08392937
3982,0.7420408,0.7438844,-0.08392937
3985,0.7415132,0.7433581,-0.08392937
3987,0.7415132,0.7433581,-0.08392937
3989,0.741777,0.7430948,-0.08622923
3992,0.7412493,0.7428315,-0.08392937
3994,0.7412493,0.7428315,-0.08392937
3996,0.7401926,0.741777,-0.08622923
3999,0.7401926,0.741777,-0.08622923
4001,0.7393991,0.7412493,-0.08156469
4003,0.7367479,0.7383398,-0.08156469
4006,0.7367479,0.7383398,-0.08156469
4008,0.7348864,0.7367479,-0.08156469
4011,0.7348864,0.7367479,-0.08156469
4013,0.7338206,0.7359507,-0.08392937
4016,0.7338206,0.7359507,-0.08392937
4018,0.7314168,0.7340872,-0.08156469
4020,0.7308815,0.7335538,-0.07661668
4023,0.7308815,0.7335538,-0.07661668
4025,0.7308815,0.7335538,-0.08392937
4027,0.7308815,0.7335538,-0.08392937
4030,0.7306137,0.733287,-0.08156469
4032,0.7314168,0.7340872,-0.08156469
4034,0.7314168,0.7340872,-0.08156469
4037,0.7327532,0.7356848,-0.08156469
4039,0.7327532,0.7356848,-0.08156469
4041,0.7338206,0.7367479,-0.08392937
4044,0.7338206,0.7367479,-0.08392937
4046,0.7364823,0.7393991,-0.08156469
4048,0.7378095,0.7407211,-0.08156469
4051,0.7378095,0.7407211,-0.08156469
4054,0.7362165,0.7393991,-0.08392937
4056,0.7362165,0.7393991,-0.08392937
4059,0.7340872,0.7375443,-0.07912937
4061,0.7324861,0.7359507,-0.08392937
4063,0.7324861,0.7359507,-0.08392937
4066,0.7298098,0.7338206,-0.08156469
4068,0.7298098,0.7338206,-0.08156469
4070,0.729005,0.7330202,-0.07661668
4073,0.729005,0.7330202,-0.07661668
4075,0.719821,0.7230757,-0.07912937
4077,0.7165515,0.719821,-0.07912937
4080,0.7165515,0.719821,-0.07912937
4082,0.7162784,0.7195491,-0.08156469
4084,0.7162784,0.7195491,-0.08156469
4087,0.7162784,0.7192771,-0.07912937
4089,0.7162784,0.7192771,-0.07912937
4091,0.7170975,0.7200928,-0.07912937
4094,0.7173703,0.7203645,-0.07661668
4097,0.7173703,0.7203645,-0.07661668
4099,0.7162784,0.7192771,-0.07661668
4101,0.7162784,0.7192771,-0.07661668
4104,0.7157319,0.7187329,-0.07912937
4106,0.7160051,0.719005,-0.07912937
4108,0.7160051,0.719005,-0.07912937
4111,0.7160051,0.7192771,-0.07401875
4113,0.7160051,0.7192771,-0.07401875
4115,0.7138155,0.7168246,-0.07401875
4118,0.7138155,0.7168246,-0.07401875
4120,0.7107937,0.7135413,-0.07912937
4122,0.7124436,0.7149112,-0.07912937
4125,0.7124436,0.7149112,-0.07912937
4127,0.7146374,0.7168246,-0.07661668
4129,0.7146374,0.7168246,-0.07661668
4132,0.7151849,0.7173703,-0.07661668
4134,0.7165515,0.7187329,-0.07661668
4136,0.7165515,0.7187329,-0.07661668
4140,0.717643,0.7200928,-0.07661668
4142,0.717643,0.7200928,-0.07661668
4144,0.7165515,0.7184606,-0.07661668
4147,0.7165515,0.7184606,-0.07661668
4149,0.7146374,0.7165515,-0.07661668
4151,0.7129927,0.7146374,-0.08156469
4154,0.7129927,0.7146374,-0.08156469
4156,0.7138155,0.7160051,-0.07912937
4158,0.7138155,0.7160051,-0.07912937
4161,0.7149112,0.7168246,-0.07661668
4163,0.7149112,0.7168246,-0.07661668
4165,0.7149112,0.7173703,-0.07401875
4168,0.7146374,0.7173703,-0.07401875
4170,0.7146374,0.7173703,-0.07401875
4172,0.7066523,0.7088641,-0.07401875
4175,0.7066523,0.7088641,-0.07401875
4177,0.7038778,0.7058211,-0.07401875
4179,0.6985759,0.7002546,-0.07912937
4183,0.6985759,0.7002546,-0.07912937
4185,0.6963314,0.697174,-0.07912937
4187,0.6963314,0.697174,-0.07912937
4189,0.694925,0.6960504,-0.08392937
4192,0.694925,0.6960504,-0.08392937
4194,0.6943616,0.6952065,-0.08156469
4196,0.7002546,0.7010924,-0.07912937
4199,0.7002546,0.7010924,-0.07912937
4201,0.7019292,0.7033216,-0.07912937
4203,0.7019292,0.7033216,-0.07912937
4206,0.7096917,0.7116191,-0.07912937
4208,0.7124436,0.7143636,-0.07401875
4210,0.7124436,0.7143636,-0.07401875
4213,0.711894,0.7138155,-0.07661668
4215,0.711894,0.7138155,-0.07661668
4217,0.7113441,0.7129927,-0.08156469
4220,0.7113441,0.7129927,-0.08156469
4222,0.7105184,0.711894,-0.08156469
4225,0.709416,0.7105184,-0.08156469
4228,0.709416,0.7105184,-0.08156469
4230,0.7099674,0.711069,-0.08156469
4232,0.7099674,0.711069,-0.08156469
4235,0.7107937,0.7116191,-0.08156469
4237,0.7099674,0.711894,-0.07912937
4239,0.7099674,0.711894,-0.07912937
4242,0.709416,0.7116191,-0.07661668
4244,0.709416,0.7116191,-0.07661668
4246,0.7091401,0.7113441,-0.07912937
4249,0.7091401,0.7113441,-0.07912937
4251,0.7030433,0.7055438,-0.07661668
4253,0.7010924,0.7035998,-0.07661668
4256,0.7010924,0.7035998,-0.07661668
4258,0.6985759,0.7010924,-0.07661668
4260,0.6985759,0.7010924,-0.07661668
4263,0.6968932,0.6991359,-0.08156469
4265,0.6968932,0.6991359,-0.08156469
4268,0.6946434,0.6963314,-0.08156469
4271,0.6968932,0.6991359,-0.08156469
4273,0.6968932,0.6991359,-0.08156469
4275,0.7010924,0.7030433,-0.08156469
4277,0.7010924,0.7030433,-0.08156469
4280,0.6994157,0.7010924,-0.07912937
4282,0.697174,0.6988559,-0.08622923
4284,0.697174,0.6988559,-0.08622923
4287,0.6994157,0.7016503,-0.08156469
4289,0.6994157,0.7016503,-0.08156469
4291,0.7016503,0.7038778,-0.07912937
4294,0.7016503,0.7038778,-0.07912937
4296,0.7024865,0.7038778,-0.08392937
4298,0.7010924,0.7027649,-0.08156469
4301,0.7010924,0.7027649,-0.08156469
4303,0.6988559,0.6996954,-0.08156469
4305,0.6988559,0.6996954,-0.08156469
4308,0.6974546,0.6982958,-0.08392937
4311,0.6985759,0.7002546,-0.08392937
4313,0.6985759,0.7002546,-0.08392937
4316,0.7010924,0.7022079,-0.07912937
4318,0.7010924,0.7022079,-0.07912937
4320,0.7069291,0.7088641,-0.07912937
4323,0.7069291,0.7088641,-0.07912937
4325,0.7102429,0.7124436,-0.07912937
4327,0.7173703,0.7200928,-0.07132626
4330,0.7173703,0.7200928,-0.07132626
4332,0.721179,0.7241574,-0.07401875
4334,0.721179,0.7241574,-0.07401875
4337,0.7287365,0.7319516,-0.06852804
4339,0.7287365,0.7319516,-0.06852804
4341,0.7327532,0.7362165,-0.0656106
4344,0.7396637,0.7430948,-0.0656106
4346,0.7396637,0.7430948,-0.0656106
4348,0.742568,0.7467723,-0.05934703
4352,0.742568,0.7467723,-0.05934703
4354,0.7506924,0.7545922,-0.06255726
4356,0.7545922,0.7589878,-0.05595291
4359,0.7545922,0.7589878,-0.05595291
4361,0.7610474,0.7654059,-0.05595291
4363,0.7610474,0.7654059,-0.05595291
4365,0.7651502,0.7689767,-0.05595291
4368,0.7651502,0.7689767,-0.05595291
4370,0.7710097,0.7758168,-0.04423466
4372,0.7735435,0.7790887,-0.04423466
4375,0.7735435,0.7790887,-0.04423466
4377,0.7753122,0.7813459,-0.04423466
4379,0.7753122,0.7813459,-0.04423466
4382,0.7870849,0.7932757,-0.03956468
4384,0.7912999,0.7974581,-0.03956468
4386,0.7912999,0.7974581,-0.03956468
4389,0.7999081,0.8072135,-0.02797646
4391,0.7999081,0.8072135,-0.02797646
4393,0.8033255,0.8106001,-0.02797646
4397,0.8033255,0.8106001,-0.02797646
4399,0.8144533,0.8218675,-0.01978234
4401,0.8185275,0.8259051,-0.02797646
4404,0.8185275,0.8259051,-0.02797646
4406,0.8275619,0.8355626,0
4408,0.8275619,0.8355626,0
4411,0.8313365,0.8388348,0
4413,0.8369665,0.844183,-0.01978234
4415,0.8369665,0.844183,-0.01978234
4418,0.839068,0.8462666,0
4420,0.839068,0.8462666,0
4422,0.8437192,0.8506485,0
4425,0.8474219,0.8543211,0
4427,0.8504184,0.8570652,0
4429,0.8538629,0.8604831,0
4432,0.8538629,0.8604831,0
4434,0.8588898,0.8650193,0
4436,0.8588898,0.8650193,0
4440,0.8591176,0.864793,0
4442,0.8591176,0.864793,0
4444,0.8593453,0.8643403,0
4447,0.8566085,0.8616194,0.01978234
4449,0.8566085,0.8616194,0.01978234
4451,0.8531751,0.8570652,0.01978234
4453,0.8531751,0.8570652,0.01978234
4456,0.8501883,0.8538629,0.01978234
4458,0.8462666,0.8492672,0.01978234
4460,0.8462666,0.8492672,0.01978234
4463,0.8423266,0.8455727,0.02797646
4465,0.8423266,0.8455727,0.02797646
4467,0.8364988,0.8393012,0.01978234
4470,0.8364988,0.8393012,0.01978234
4472,0.8325126,0.8355626,0.01978234
4474,0.8266156,0.8296872,0.01978234
4477,0.8266156,0.8296872,0.01978234
4480,0.8247196,0.8277984,0.01978234
4482,0.8247196,0.8277984,0.01978234
4485,0.8223435,0.8254311,0.02797646
4487,0.8204377,0.82377,0.01978234
4489,0.8204377,0.82377,0.01978234
4492,0.8190054,0.8221055,0.01978234
4494,0.81781,0.8209146,0.02797646
4496,0.8146936,0.8182884,0.01978234
4499,0.8146936,0.8182884,0.01978234
4501,0.8120472,0.8156537,0.01978234
4503,0.8089085,0.8132511,0.01978234
4506,0.8089085,0.8132511,0.01978234
4508,0.8084246,0.8127698,0
4510,0.8084246,0.8127698,0
4513,0.8067285,0.812529,0
4515,0.8060005,0.8120472,0
4517,0.8060005,0.8120472,0
4520,0.8067285,0.8130105,0
4523,0.8067285,0.8130105,0
4525,0.8074558,0.814213,0
4528,0.8074558,0.814213,0
4530,0.8103587,0.8173313,0
4532,0.8120472,0.8192443,0
4535,0.8120472,0.8192443,0
4537,0.8130105,0.8206762,0
4539,0.8130105,0.8206762,0
4541,0.8127698,0.8209146,0
4544,0.8127698,0.8209146,0
4546,0.8156537,0.82377,-0.01978234
4548,0.81781,0.826142,-0.01978234
4551,0.81781,0.826142,-0.01978234
4553,0.8197219,0.8280347,-0.01978234
4555,0.8230571,0.8315719,-0.01978234
4558,0.8256681,0.8343908,-0.01978234
4560,0.8256681,0.8343908,-0.01978234
4562,0.8256681,0.8343908,-0.01978234
4566,0.8256681,0.8343908,-0.01978234
4568,0.8256681,0.8343908,-0.01978234
4570,0.8275619,0.8364988,-0.01978234
4573,0.8275619,0.8364988,-0.01978234
4575,0.8266156,0.8357967,-0.01978234
4577,0.8268523,0.8353283,-0.01978234
4580,0.8268523,0.8353283,-0.01978234
4582,0.828271,0.8369665,-0.01978234
4584,0.828271,0.8369665,-0.01978234
4587,0.8292154,0.8376676,-0.01978234
4589,0.8289794,0.8372003,0
4591,0.8289794,0.8372003,0
4594,0.8287433,0.8369665,-0.01978234
4596,0.8287433,0.8369665,-0.01978234
4598,0.8285072,0.8362648,0
4601,0.8285072,0.8362648,0
4603,0.8287433,0.8360308,0
4605,0.828271,0.8353283,0
4609,0.828271,0.8353283,0
4611,0.8280347,0.8355626,0
4613,0.8280347,0.8355626,0
4616,0.8318071,0.8383681,0
4618,0.8318071,0.8383681,0
4620,0.8329825,0.8395343,0
4622,0.8339216,0.8400003,0
4625,0.8339216,0.8400003,0
4627,0.8341562,0.8402332,0
4629,0.8341562,0.8402332,0
4632,0.835094,0.840466,0
4634,0.8355626,0.8406988,0
4636,0.8355626,0.8406988,0
4639,0.8353283,0.8400003,0
4641,0.8353283,0.8400003,0
4643,0.8353283,0.8395343,0.01978234
4646,0.8353283,0.8395343,0.01978234
4648,0.8393012,0.8434873,0
4651,0.8406988,0.8448781,0
4654,0.8406988,0.8448781,0
4656,0.8439512,0.8474219,0.01978234
4658,0.8439512,0.8474219,0.01978234
4661,0.8451096,0.848345,0.02797646
4663,0.8490367,0.8524867,0.01978234
4665,0.8490367,0.8524867,0.01978234
4668,0.8508785,0.8534044,0.02797646
4670,0.8508785,0.8534044,0.02797646
4672,0.8524867,0.8550079,0.02797646
4675,0.8524867,0.8550079,0.02797646
4677,0.8524867,0.8556943,0.01978234
4679,0.858206,0.8616194,0
4682,0.858206,0.8616194,0
4684,0.8602557,0.8641139,0.01978234
4686,0.8602557,0.8641139,0.01978234
4689,0.8618464,0.8659236,0.01978234
4691,0.8641139,0.8686311,0.01978234
4694,0.8641139,0.8686311,0.01978234
4697,0.8638874,0.8688563,0
4699,0.8638874,0.8688563,0
4701,0.8638874,0.8688563,0.01978234
4704,0.8638874,0.8688563,0.01978234
4706,0.8641139,0.8697567,0.01978234
4708,0.864793,0.8711056,0
4710,0.864793,0.8711056,0
4713,0.864793,0.8713301,0.01978234
4715,0.864793,0.8713301,0.01978234
4717,0.8643403,0.8713301,0.01978234
4720,0.8643403,0.8713301,0.01978234
4722,0.8654715,0.8726766,0.01978234
4724,0.8659236,0.8737969,0.01978234
4727,0.8659236,0.8737969,0.01978234
4729,0.8695317,0.8778186,0.01978234
4731,0.8695317,0.8778186,0.01978234
4734,0.872228,0.8802673,0.01978234
4737,0.8760335,0.8851442,0
4739,0.8760335,0.8851442,0
4742,0.8780415,0.8875727,0.01978234
4744,0.8780415,0.8875727,0.01978234
4746,0.8804895,0.8902143,0
4749,0.8804895,0.8902143,0
4751,0.8840382,0.8948184,0
4753,0.8824874,0.8941622,0
4756,0.8824874,0.8941622,0
4758,0.8809339,0.8928481,0
4760,0.8809339,0.8928481,0
4763,0.8789325,0.8915322,0
4765,0.8778186,0.8899944,0
4767,0.8778186,0.8899944,0
4770,0.8704314,0.8835954,0
4772,0.8704314,0.8835954,0
4774,0.8661495,0.8789325,0
4777,0.8661495,0.8789325,0
4780,0.8607104,0.8740209,0
4782,0.8593453,0.8726766,0
4785,0.8593453,0.8726766,0
4787,0.8559229,0.8699816,0
4789,0.8559229,0.8699816,0
4792,0.8538629,0.867955,-0.01978234
4794,0.8538629,0.867955,-0.01978234
4796,0.8524867,0.8663754,-0.01978234
4798,0.8566085,0.8708809,-0.02797646
4801,0.8566085,0.8708809,-0.02797646
4803,0.857978,0.8724523,-0.02797646
4805,0.857978,0.8724523,-0.02797646
4808,0.8591176,0.8740209,-0.02797646
4810,0.8595729,0.8744686,-0.02797646
4812,0.8595729,0.8744686,-0.02797646
4815,0.8593453,0.8749159,-0.03426402
4817,0.8593453,0.8749159,-0.03426402
4819,0.8591176,0.8751395,-0.03426402
4823,0.8591176,0.8751395,-0.03426402
4825,0.8591176,0.8751395,-0.03426402
4827,0.8591176,0.8746923,-0.03956468
4830,0.8591176,0.8746923,-0.03956468
4832,0.8604831,0.8760335,-0.03956468
4834,0.8604831,0.8760335,-0.03956468
4837,0.8620735,0.8778186,-0.03426402
4839,0.8623004,0.8780415,-0.03426402
4841,0.8623004,0.8780415,-0.03426402
4844,0.8627541,0.8784871,-0.04423466
4846,0.8627541,0.8784871,-0.04423466
4848,0.8627541,0.8782644,-0.03956468
4851,0.8627541,0.8782644,-0.03956468
4853,0.8620735,0.8769265,-0.03956468
4855,0.8613922,0.8762568,-0.03956468
4858,0.8613922,0.8762568,-0.03956468
4860,0.8616194,0.8755867,-0.03956468
4862,0.8616194,0.8755867,-0.03956468
4866,0.8620735,0.8758101,-0.03426402
4868,0.8625273,0.8758101,-0.03956468
4870,0.8625273,0.8758101,-0.03956468
4873,0.8613922,0.8737969,-0.02797646
4875,0.8613922,0.8737969,-0.02797646
4877,0.861165,0.8731248,-0.02797646
4880,0.861165,0.8731248,-0.02797646
4882,0.8595729,0.8704314,-0.02797646
4884,0.8593453,0.8695317,-0.02797646
4886,0.8593453,0.8695317,-0.02797646
4889,0.8591176,0.8690815,-0.01978234
4891,0.8591176,0.8690815,-0.01978234
4893,0.858434,0.8681804,-0.01978234
4896,0.858434,0.8681804,-0.01978234
4898,0.858434,0.8677295,-0.02797646
4900,0.8586619,0.8677295,-0.01978234
4903,0.8586619,0.8677295,-0.01978234
4905,0.858206,0.8672784,-0.01978234
4908,0.858206,0.8672784,-0.01978234
4911,0.858206,0.8666012,-0.01978234
4913,0.8586619,0.8670527,0
4915,0.8586619,0.8670527,0
4918,0.8591176,0.8677295,0
4920,0.8591176,0.8677295,0
4922,0.8598006,0.8681804,0
4925,0.8598006,0.8681804,0
4927,0.8604831,0.8690815,0
4929,0.8618464,0.8704314,0
4932,0.8618464,0.8704314,0
4934,0.8641139,0.872228,0
4936,0.8641139,0.872228,0
4939,0.8645667,0.8724523,0
4941,0.8645667,0.8726766,0
4943,0.8645667,0.8726766,0
4946,0.8645667,0.8724523,0
4948,0.8645667,0.8724523,0
4951,0.8643403,0.872228,0
4954,0.8643403,0.872228,0
4956,0.8652454,0.8726766,0
4958,0.8659236,0.873573,0
4961,0.8659236,0.873573,0
4963,0.8636609,0.8711056,0
4965,0.8636609,0.8711056,0
4968,0.8600281,0.8672784,0
4970,0.8588898,0.8656976,0
4972,0.8588898,0.8656976,0
4974,0.8572935,0.864793,0
4977,0.85638,0.8636609,0
4979,0.8543211,0.861165,0
4981,0.8543211,0.861165,0
4984,0.8527163,0.8595729,0
4986,0.8497278,0.8566085,0
4988,0.8497278,0.8566085,0
4992,0.848345,0.8552368,0
4994,0.848345,0.8552368,0
4996,0.8474219,0.854092,0
4999,0.8474219,0.854092,0
5001,0.8469599,0.8536337,0
5003,0.8467289,0.8534044,0
5006,0.8467289,0.8534044,0
5008,0.8455727,0.8522572,0
5010,0.8455727,0.8522572,0
5013,0.8467289,0.8534044,0
5015,0.8478836,0.8543211,0
5017,0.8478836,0.8543211,0
5020,0.8467289,0.8531751,0
5022,0.8467289,0.8531751,0
5024,0.8451096,0.8520276,0
5027,0.8451096,0.8520276,0
5029,0.8418618,0.8490367,0
5031,0.8400003,0.8478836,0
5035,0.8400003,0.8478836,0
5037,0.8369665,0.8444148,0
5039,0.8369665,0.8444148,0
5042,0.835094,0.8425589,0
5044,0.8325126,0.840466,0
5046,0.8325126,0.840466,0
5049,0.8315719,0.8397673,0
5051,0.8315719,0.8397673,0
5053,0.8308656,0.839068,0
5056,0.8308656,0.839068,0
5058,0.8322775,0.8409316,0
5060,0.8325126,0.8416294,0
5062,0.8325126,0.8416294,0
5065,0.8334522,0.8423266,0
5067,0.8334522,0.8423266,0
5069,0.8336869,0.8425589,0
5072,0.8336869,0.8425589,0
5074,0.8357967,0.8444148,0
5076,0.8388348,0.8474219,0
5080,0.8388348,0.8474219,0
5082,0.8393012,0.8476528,0
5084,0.8393012,0.8476528,0
5087,0.8397673,0.848345,0
5089,0.8402332,0.8488063,0
5091,0.8402332,0.8488063,0
5094,0.840466,0.8494976,0
5096,0.840466,0.8494976,0
5098,0.8418618,0.8508785,0
5101,0.8418618,0.8508785,0
5103,0.842791,0.8515682,0
5105,0.8413968,0.8501883,0
5108,0.8413968,0.8501883,0
5110,0.8409316,0.8494976,0
5112,0.8409316,0.8494976,0
5115,0.840466,0.8488063,0
5117,0.8402332,0.848345,0
5120,0.8402332,0.848345,0
5123,0.8400003,0.8481144,0
5125,0.8400003,0.8481144,0
5127,0.8397673,0.8478836,0
5130,0.8397673,0.8478836,0
5132,0.8400003,0.8478836,0
5134,0.8395343,0.8478836,0
5137,0.8395343,0.8478836,0
5139,0.839068,0.8474219,0
5141,0.839068,0.8474219,0
5144,0.8386015,0.8469599,0
5146,0.8360308,0.8439512,0
5148,0.8360308,0.8439512,0
5150,0.8348597,0.842791,0
5153,0.8348597,0.842791,0
5155,0.8343908,0.8423266,0
5157,0.8343908,0.8423266,0
5160,0.8334522,0.8418618,0
5163,0.8343908,0.8418618,0
5165,0.8343908,0.8418618,0
5168,0.8348597,0.8423266,0
5170,0.8348597,0.8423266,0
5172,0.8362648,0.8444148,0
5175,0.8362648,0.8444148,0
5177,0.8379012,0.8455727,0
5179,0.8400003,0.8474219,0
5182,0.8400003,0.8474219,0
5184,0.8406988,0.848345,0
5186,0.8406988,0.848345,0
5189,0.8416294,0.8492672,0
5191,0.8423266,0.8494976,0
5193,0.8423266,0.8494976,0
5196,0.8423266,0.8499581,0
5198,0.8423266,0.8499581,0
5200,0.8423266,0.8501883,0
5203,0.8423266,0.8501883,0
5206,0.8423266,0.8497278,0
5208,0.842791,0.8499581,0
5211,0.842791,0.8499581,0
5213,0.842791,0.8499581,0
5215,0.842791,0.8499581,0
5218,0.8383681,0.8455727,0.01978234
5220,0.8364988,0.8432553,0
5222,0.8364988,0.8432553,0
5225,0.8339216,0.840466,0
5227,0.8339216,0.840466,0
5229,0.8332174,0.8395343,0
5231,0.8332174,0.8395343,0
5234,0.8346253,0.8406988,0
5236,0.8329825,0.8388348,0.01978234
5238,0.8329825,0.8388348,0.01978234
5241,0.8306301,0.8367326,0
5243,0.8306301,0.8367326,0
5245,0.8306301,0.8364988,0
5249,0.8306301,0.8364988,0
5251,0.8306301,0.8362648,0.01978234
5253,0.8315719,0.8369665,0
5256,0.8315719,0.8369665,0
5258,0.8320423,0.8379012,0
5260,0.8320423,0.8379012,0
5263,0.8343908,0.8397673,0.01978234
5265,0.8357967,0.8409316,0
5267,0.8357967,0.8409316,0
5270,0.8364988,0.8418618,0.01978234
5272,0.8364988,0.8418618,0.01978234
5274,0.8360308,0.8413968,0.01978234
5277,0.8360308,0.8413968,0.01978234
5279,0.8357967,0.8411642,0
5281,0.8355626,0.840466,0.01978234
5284,0.8355626,0.840466,0.01978234
5286,0.8353283,0.840466,0.01978234
5288,0.8353283,0.840466,0.01978234
5292,0.8327476,0.8381346,0
5294,0.8318071,0.8374339,0.01978234
5296,0.8318071,0.8374339,0.01978234
5299,0.8311011,0.8369665,0
5301,0.8311011,0.8369665,0
5303,0.8315719,0.8369665,0
5306,0.8315719,0.8369665,0
5308,0.8329825,0.8386015,0
5310,0.8336869,0.8393012,0
5313,0.8336869,0.8393012,0
5315,0.8329825,0.8386015,0
5317,0.8329825,0.8386015,0
5319,0.8341562,0.8400003,0
5322,0.8357967,0.8416294,0
5324,0.8357967,0.8416294,0
5326,0.8369665,0.8425589,0.01978234
5329,0.8369665,0.8425589,0.01978234
5331,0.839068,0.8446465,0
5334,0.839068,0.8446465,0
5337,0.8397673,0.845804,0
5339,0.8402332,0.8462666,0
5341,0.8402332,0.8462666,0
5344,0.840466,0.8464977,0
5346,0.840466,0.8464977,0
5348,0.8418618,0.8478836,0.01978234
5351,0.8418618,0.8478836,0.01978234
5353,0.8420942,0.848345,0
5355,0.8425589,0.8494976,0
5358,0.8425589,0.8494976,0
5360,0.8432553,0.8497278,0
5362,0.8432553,0.8497278,0
5365,0.8444148,0.8506485,0
5367,0.8446465,0.8511084,0
5369,0.8446465,0.8511084,0
5372,0.8460353,0.8527163,0.01978234
5374,0.8460353,0.8527163,0.01978234
5377,0.8464977,0.8534044,0
5380,0.8464977,0.8534044,0
5382,0.8464977,0.8536337,0
5384,0.8464977,0.8538629,0
5387,0.8464977,0.8538629,0
5389,0.8464977,0.8534044,0
5391,0.8464977,0.8534044,0
5394,0.8460353,0.8531751,0
5396,0.845804,0.8527163,0
5398,0.845804,0.8527163,0
5401,0.8453411,0.8524867,0
5403,0.8453411,0.8524867,0
5405,0.8451096,0.8520276,0
5407,0.8451096,0.8520276,0
5410,0.8451096,0.8517979,0
5412,0.844183,0.8511084,0
5414,0.844183,0.8511084,0
5417,0.8432553,0.8504184,0.01978234
5420,0.8432553,0.8504184,0.01978234
5422,0.8432553,0.8501883,0
5425,0.8432553,0.8501883,0
5427,0.8432553,0.8501883,0
5429,0.8434873,0.8501883,0
5432,0.8434873,0.8501883,0
5434,0.842791,0.8494976,0
5436,0.842791,0.8494976,0
5439,0.8423266,0.8492672,0
5441,0.8413968,0.848345,0
5443,0.8413968,0.848345,0
5446,0.8411642,0.8478836,0
5448,0.8411642,0.8478836,0
5450,0.8406988,0.8474219,0
5453,0.8406988,0.8474219,0
5455,0.8416294,0.8488063,0
5457,0.8432553,0.8499581,0
5460,0.8432553,0.8499581,0
5463,0.844183,0.8508785,0
5465,0.844183,0.8508785,0
5468,0.8453411,0.8520276,0
5470,0.8453411,0.8520276,0
5472,0.8453411,0.8520276,0
5475,0.8446465,0.8511084,0
5477,0.8446465,0.8511084,0
5479,0.8446465,0.8511084,0
5482,0.8446465,0.8511084,0
5484,0.8432553,0.8497278,0
5486,0.8418618,0.8481144,0
5489,0.8418618,0.8481144,0
5491,0.8413968,0.8469599,0
5493,0.8413968,0.8469599,0
5495,0.8409316,0.8467289,0
5498,0.8409316,0.8467289,0
5500,0.8409316,0.8467289,0
5502,0.8406988,0.8462666,0
5506,0.8406988,0.8462666,0
5508,0.8406988,0.845804,0
5510,0.8406988,0.845804,0
5513,0.840466,0.8455727,0
5515,0.8409316,0.8460353,0
5517,0.8409316,0.8460353,0
5520,0.8409316,0.8464977,0
5522,0.8409316,0.8464977,0
5524,0.8386015,0.844183,0
5527,0.8386015,0.844183,0
5529,0.8376676,0.8432553,0
5531,0.8388348,0.8446465,0
5534,0.8388348,0.8446465,0
5536,0.8395343,0.8451096,0.01978234
5538,0.8395343,0.8451096,0.01978234
5541,0.8402332,0.8462666,0
5543,0.840466,0.8464977,0
5545,0.840466,0.8464977,0
5549,0.8413968,0.847191,0
5551,0.8413968,0.847191,0
5553,0.8416294,0.8476528,0
5556,0.8416294,0.8476528,0
5558,0.8418618,0.8476528,0
5560,0.8420942,0.8481144,0
5563,0.8420942,0.8481144,0
5565,0.8425589,0.8485757,0
5567,0.8425589,0.8485757,0
5570,0.844183,0.8501883,0
5572,0.8453411,0.8515682,0
5574,0.8453411,0.8515682,0
5577,0.8469599,0.8531751,0
5579,0.8469599,0.8531751,0
5581,0.8485757,0.8545501,0
5583,0.8485757,0.8545501,0
5586,0.8501883,0.8566085,0
5588,0.8504184,0.8568369,0
5591,0.8504184,0.8568369,0
5594,0.8511084,0.8570652,-0.01978234
5596,0.8511084,0.8570652,-0.01978234
5598,0.8522572,0.8586619,0
5601,0.8527163,0.8591176,0
5603,0.8527163,0.8591176,0
5605,0.8508785,0.8570652,0
5608,0.8508785,0.8570652,0
5610,0.8501883,0.8566085,0
5612,0.8501883,0.8566085,0
5615,0.8474219,0.8543211,0
5617,0.8464977,0.8529457,0
5619,0.8464977,0.8529457,0
5622,0.8469599,0.8538629,0
5624,0.8469599,0.8538629,0
5626,0.8478836,0.8543211,0
5629,0.8478836,0.8543211,0
5632,0.8492672,0.8559229,0
5634,0.8515682,0.857978,0
5637,0.8515682,0.857978,0
5639,0.8515682,0.858206,0
5641,0.8515682,0.858206,0
5644,0.8517979,0.8586619,0
5646,0.8527163,0.8591176,0
5648,0.8527163,0.8591176,0
5651,0.854092,0.8604831,0
5653,0.854092,0.8604831,0
5655,0.8538629,0.8607104,0
5658,0.8538629,0.8607104,0
5660,0.8534044,0.8602557,0
5662,0.8538629,0.8607104,0
5665,0.8538629,0.8607104,0
5667,0.8545501,0.8609378,0
5669,0.8545501,0.8609378,0
5671,0.8550079,0.861165,0
5675,0.8545501,0.861165,0
5677,0.8545501,0.861165,0
5679,0.8538629,0.8602557,0
5682,0.8538629,0.8602557,0
5684,0.8534044,0.8600281,0
5686,0.8534044,0.8600281,0
5689,0.8531751,0.8593453,0
5691,0.8531751,0.8591176,0
5693,0.8531751,0.8591176,0
5696,0.854092,0.8595729,0
5698,0.854092,0.8595729,0
5700,0.8545501,0.8600281,0
5703,0.8545501,0.8600281,0
5705,0.8556943,0.8613922,0
5707,0.8568369,0.8620735,0
5710,0.8568369,0.8620735,0
5712,0.8570652,0.8625273,0
5714,0.8570652,0.8625273,0
5718,0.8568369,0.8623004,0
5720,0.8570652,0.8623004,0
5722,0.8570652,0.8623004,0
5725,0.8554656,0.8613922,0
5727,0.8554656,0.8613922,0
5729,0.8538629,0.8595729,0
5732,0.8538629,0.8595729,0
5734,0.8515682,0.8572935,0
5736,0.8504184,0.8561515,0
5739,0.8504184,0.8561515,0
5741,0.8494976,0.8552368,0
5743,0.8494976,0.8552368,0
5746,0.8467289,0.8524867,0
5748,0.8453411,0.8511084,0
5750,0.8453411,0.8511084,0
5753,0.8437192,0.8497278,0
5755,0.8437192,0.8497278,0
5757,0.8434873,0.8488063,0
5760,0.8434873,0.8488063,0
5763,0.8423266,0.8478836,0
5765,0.8418618,0.8476528,0
5767,0.8418618,0.8476528,0
5770,0.8411642,0.8474219,0
5772,0.8411642,0.8474219,0
5774,0.8397673,0.845804,0
5777,0.8393012,0.8448781,0
5779,0.8393012,0.8448781,0
5781,0.8379012,0.8439512,0
5784,0.8379012,0.8439512,0
5786,0.8357967,0.8413968,0
5788,0.8357967,0.8413968,0
5791,0.8346253,0.8402332,0
5793,0.8308656,0.8369665,0
5795,0.8308656,0.8369665,0
5798,0.8294513,0.8346253,0
5800,0.8294513,0.8346253,0
5803,0.8266156,0.8318071,0
5806,0.8266156,0.8318071,0
5808,0.8213912,0.8270888,0
5810,0.8144533,0.8194832,0
5813,0.8144533,0.8194832,0
5815,0.812529,0.8175707,0
5817,0.812529,0.8175707,0
5820,0.8098756,0.8154138,0
5822,0.8096339,0.8149337,-0.01978234
5824,0.8096339,0.8149337,-0.01978234
5827,0.8047857,0.8101172,0
5829,0.8047857,0.8101172,0
5831,0.8013745,0.8067285,0
5834,0.8013745,0.8067285,0
5836,0.798439,0.804056,-0.01978234
5838,0.7930291,0.798684,-0.01978234
5840,0.7930291,0.798684,-0.01978234
5843,0.7912999,0.7967216,-0.01978234
5846,0.7912999,0.7967216,-0.01978234
5848,0.7898148,0.7947544,-0.01978234
5851,0.7870849,0.7920414,0
5853,0.7870849,0.7920414,0
5855,0.7868362,0.7920414,0
5858,0.7868362,0.7920414,0
5860,0.7868362,0.7922885,-0.01978234
5862,0.7868362,0.7922885,-0.01978234
5865,0.7878303,0.7930291,-0.01978234
5867,0.7888232,0.7940154,-0.01978234
5869,0.7888232,0.7940154,-0.01978234
5872,0.7885751,0.7937689,-0.01978234
5874,0.7885751,0.7937689,-0.01978234
5876,0.7878303,0.7930291,-0.01978234
5879,0.7883269,0.7932757,0
5881,0.7883269,0.7932757,0
5883,0.7898148,0.7947544,0
5886,0.7898148,0.7947544,0
5889,0.7922885,0.7972127,0
5891,0.7922885,0.7972127,0
5894,0.7930291,0.7979487,0
5896,0.7950006,0.7996635,0
5898,0.7950006,0.7996635,0
5901,0.7959845,0.8003972,0
5903,0.7959845,0.8003972,0
5905,0.798929,0.8035691,0
5908,0.798929,0.8035691,0
5910,0.800886,0.8057577,0
5912,0.8028382,0.8076981,0
5915,0.8028382,0.8076981,0
5917,0.8055148,0.8106001,0
5919,0.8055148,0.8106001,0
5922,0.8076981,0.8127698,0
5924,0.8108415,0.8156537,0
5926,0.8108415,0.8156537,0
5928,0.8118062,0.8161334,0
5932,0.8118062,0.8161334,0
5934,0.8120472,0.8166127,0
5936,0.812529,0.8168523,0
5939,0.8130105,0.8170919,0
5941,0.8132511,0.8170919,0
5943,0.8132511,0.8170919,0
5946,0.8151737,0.8187665,0
5948,0.8151737,0.8187665,0
5950,0.8163731,0.8199606,0
5953,0.8182884,0.8213912,0.01978234
5955,0.8182884,0.8213912,0.01978234
5957,0.8182884,0.8218675,0
5960,0.8182884,0.8218675,0
5962,0.8187665,0.8221055,0
5964,0.8187665,0.8221055,0
5967,0.8194832,0.8225815,0
5969,0.8197219,0.8228193,0
5971,0.8197219,0.8228193,0
5975,0.8221055,0.8259051,0
5977,0.8221055,0.8259051,0
5979,0.8244823,0.8285072,0
5982,0.8244823,0.8285072,0
5984,0.826142,0.8303944,-0.01978234
5986,0.8273254,0.8322775,0
5989,0.8273254,0.8322775,0
5991,0.8277984,0.8322775,0
5993,0.8277984,0.8322775,0
5996,0.8289794,0.8341562,0
5998,0.8296872,0.835094,0
6000,0.8296872,0.835094,0
6003,0.8303944,0.8360308,-0.01978234
6005,0.8303944,0.8360308,-0.01978234
6007,0.8341562,0.8402332,0
6010,0.8341562,0.8402332,0
6012,0.8355626,0.8416294,0
6014,0.8381346,0.844183,0
6017,0.8381346,0.844183,0
6020,0.8416294,0.8476528,-0.01978234
6022,0.8416294,0.8476528,-0.01978234
6024,0.8420942,0.8481144,0
6027,0.8434873,0.8494976,0
6029,0.8434873,0.8494976,0
6031,0.8446465,0.8504184,0
6034,0.8446465,0.8504184,0
6036,0.8453411,0.8511084,0
6038,0.8455727,0.8515682,0
6041,0.8460353,0.8520276,0
6043,0.8462666,0.8522572,0
6045,0.8462666,0.8522572,0
6048,0.8485757,0.854092,0
6050,0.8485757,0.854092,0
6052,0.8490367,0.8550079,0
6055,0.8522572,0.858206,0
6057,0.8522572,0.858206,0
6060,0.8534044,0.8591176,0
6063,0.8534044,0.8591176,0
6065,0.8575217,0.8634343,0
6067,0.8575217,0.8634343,0
6070,0.8586619,0.864793,0
6072,0.8618464,0.867955,0
6074,0.8618464,0.867955,0
6077,0.8661495,0.872228,0
6079,0.8661495,0.872228,0
6081,0.8681804,0.8740209,0
6084,0.8681804,0.8753631,0
6086,0.8706562,0.8762568,0
6088,0.8688563,0.8744686,0
6091,0.8688563,0.8744686,0
6093,0.8666012,0.8724523,0
6095,0.8666012,0.8724523,0
6098,0.8688563,0.8742447,0
6100,0.8715547,0.8771496,0.01978234
6103,0.8715547,0.8771496,0.01978234
6105,0.8715547,0.8771496,0
6108,0.8715547,0.8771496,0
6110,0.8713301,0.8773727,0
6112,0.8713301,0.8773727,0
6115,0.8704314,0.8755867,0
6117,0.8681804,0.873573,0
6119,0.8681804,0.873573,0
6122,0.867955,0.8731248,0.01978234
6124,0.867955,0.8731248,0.01978234
6126,0.8670527,0.8731248,0.01978234
6129,0.8672784,0.8742447,0
6131,0.8672784,0.8742447,0
6133,0.8677295,0.8751395,0
6136,0.8677295,0.8751395,0
6138,0.8672784,0.8758101,0
6140,0.8672784,0.8758101,0
6144,0.8670527,0.8758101,0
6146,0.8684058,0.8780415,0
6148,0.8684058,0.8780415,0
6151,0.8684058,0.8784871,0
6153,0.8684058,0.8784871,0
6155,0.8677295,0.8784871,0
6158,0.866827,0.8780415,-0.01978234
6160,0.866827,0.8780415,-0.01978234
6162,0.864793,0.8769265,-0.01978234
6165,0.864793,0.8769265,-0.01978234
6167,0.8634343,0.8758101,-0.01978234
6169,0.8634343,0.8758101,-0.01978234
6172,0.8604831,0.873349,-0.02797646
6174,0.8588898,0.872228,-0.02797646
6176,0.8588898,0.872228,-0.02797646
6179,0.8568369,0.8699816,-0.03426402
6181,0.8568369,0.8699816,-0.03426402
6183,0.8554656,0.8693066,-0.03426402
6187,0.8554656,0.8693066,-0.03426402
6189,0.8568369,0.8704314,-0.04423466
6191,0.8577499,0.8713301,-0.04423466
6193,0.8577499,0.8713301,-0.04423466
6196,0.858434,0.8726766,-0.05233916
6198,0.858434,0.8726766,-0.05233916
6200,0.858206,0.8726766,-0.05233916
6203,0.861165,0.8762568,-0.05233916
6205,0.861165,0.8762568,-0.05233916
6207,0.8638874,0.8791551,-0.05595291
6210,0.8638874,0.8791551,-0.05595291
6212,0.8695317,0.8851442,-0.05934703
6214,0.8695317,0.8851442,-0.05934703
6217,0.872228,0.8880135,-0.06255726
6219,0.8760335,0.8917516,-0.0656106
6221,0.8760335,0.8917516,-0.0656106
6224,0.8769265,0.8928481,-0.0656106
6226,0.8769265,0.8928481,-0.0656106
6228,0.8773727,0.8937243,-0.06852804
6232,0.881156,0.8978747,-0.07132626
6234,0.881156,0.8978747,-0.07132626
6236,0.8824874,0.899399,-0.06852804
6239,0.8824874,0.899399,-0.06852804
6241,0.8844808,0.9026566,-0.07401875
6243,0.8844808,0.9026566,-0.07401875
6246,0.8853652,0.9039564,-0.07401875
6248,0.8866904,0.9056864,-0.07661668
6250,0.8866904,0.9056864,-0.07661668
6253,0.8871316,0.9063343,-0.07661668
6255,0.8871316,0.9063343,-0.07661668
6257,0.8895546,0.9089215,-0.07912937
6260,0.8895546,0.9089215,-0.07912937
6262,0.8917516,0.9117159,-0.07661668
6264,0.8937243,0.9140738,-0.07912937
6267,0.8937243,0.9140738,-0.07912937
6269,0.8967844,0.9172792,-0.08156469
6272,0.8967844,0.9172792,-0.08156469
6275,0.8991814,0.91941,-0.07661668
6277,0.9011378,0.9211111,-0.07661668
6279,0.9011378,0.9211111,-0.07661668
6281,0.9009206,0.9208986,-0.07401875
6284,0.9009206,0.9208986,-0.07401875
6286,0.9007034,0.9206861,-0.07401875
6288,0.9007034,0.9206861,-0.07401875
6291,0.8978747,0.9164255,-0.07401875
6293,0.8965662,0.9151434,-0.07401875
6295,0.8965662,0.9151434,-0.07401875
6298,0.8943809,0.9119305,-0.07401875
6300,0.8943809,0.9119305,-0.07401875
6302,0.8937243,0.9106421,-0.07132626
6305,0.8893346,0.9056864,-0.07132626
6307,0.8893346,0.9056864,-0.07132626
6309,0.8877931,0.9043891,-0.07132626
6312,0.8877931,0.9043891,-0.07132626
6315,0.8855863,0.901789,-0.07132626
6317,0.8855863,0.901789,-0.07132626
6320,0.8818219,0.8976567,-0.06852804
6322,0.8816,0.8967844,-0.06852804
6324,0.8816,0.8967844,-0.06852804
6327,0.8804895,0.8954742,-0.06852804
6329,0.8804895,0.8954742,-0.06852804
6331,0.8791551,0.8943809,-0.0656106
6334,0.8773727,0.892629,-0.0656106
6336,0.8773727,0.892629,-0.0656106
6338,0.8758101,0.8908735,-0.0656106
6341,0.8758101,0.8908735,-0.0656106
6343,0.873573,0.8886743,-0.0656106
6345,0.873573,0.8886743,-0.0656106
6348,0.8695317,0.8840382,-0.0656106
6350,0.8661495,0.8809339,-0.0656106
6352,0.8661495,0.8809339,-0.0656106
6355,0.8613922,0.8755867,-0.06852804
6358,0.8613922,0.8755867,-0.06852804
6360,0.8598006,0.8737969,-0.06852804
6363,0.8598006,0.8737969,-0.06852804
6365,0.8561515,0.8697567,-0.07132626
6367,0.8543211,0.867955,-0.07132626
6369,0.8543211,0.867955,-0.07132626
6372,0.848345,0.8618464,-0.07401875
6374,0.848345,0.8618464,-0.07401875
6376,0.8462666,0.8598006,-0.07401875
6379,0.8446465,0.858206,-0.07401875
6381,0.8446465,0.858206,-0.07401875
6383,0.8451096,0.858206,-0.07661668
6386,0.8451096,0.858206,-0.07661668
6388,0.8455727,0.8586619,-0.07661668
6390,0.8455727,0.8586619,-0.07661668
6393,0.845804,0.8591176,-0.07661668
6395,0.845804,0.8591176,-0.07661668
6397,0.845804,0.8591176,-0.07661668
6401,0.8446465,0.8577499,-0.07912937
6403,0.8446465,0.8577499,-0.07912937
6405,0.8420942,0.8552368,-0.07912937
6408,0.8402332,0.8527163,-0.08392937
6410,0.8402332,0.8527163,-0.08392937
6412,0.839068,0.8515682,-0.08392937
6415,0.839068,0.8515682,-0.08392937
6417,0.8395343,0.8517979,-0.08622923
6419,0.8395343,0.8517979,-0.08622923
6422,0.840466,0.8529457,-0.08392937
6424,0.8423266,0.8547791,-0.08846933
6426,0.8423266,0.8547791,-0.08846933
6429,0.8423266,0.8545501,-0.08846933
6431,0.8423266,0.8545501,-0.08846933
6433,0.8425589,0.8545501,-0.08846933
6436,0.8425589,0.8545501,-0.08846933
6438,0.8430232,0.8547791,-0.09278741
6440,0.8432553,0.8547791,-0.09278741
6444,0.8432553,0.8547791,-0.09278741
6446,0.8432553,0.8552368,-0.09278741
6448,0.8432553,0.8552368,-0.09278741
6450,0.8430232,0.8554656,-0.09278741
6453,0.8432553,0.8556943,-0.09278741
6455,0.8432553,0.8556943,-0.09278741
6457,0.8460353,0.858206,-0.09487279
6460,0.8460353,0.858206,-0.09487279
6462,0.8467289,0.8588898,-0.09487279
6464,0.8467289,0.8588898,-0.09487279
6467,0.8488063,0.8607104,-0.09691329
6469,0.8492672,0.861165,-0.09891172
6471,0.8492672,0.861165,-0.09891172
6474,0.8481144,0.8602557,-0.1008706
6476,0.8481144,0.8602557,-0.1008706
6478,0.8476528,0.8598006,-0.1008706
6481,0.8467289,0.8591176,-0.09891172
6483,0.8462666,0.858434,-0.1027921
6486,0.8448781,0.8570652,-0.1027921
6489,0.8448781,0.8570652,-0.1027921
6491,0.8437192,0.8556943,-0.1027921
6493,0.8437192,0.8556943,-0.1027921
6496,0.8423266,0.854092,-0.1046783
6498,0.8420942,0.8538629,-0.1046783
6500,0.8420942,0.8538629,-0.1046783
6503,0.842791,0.8545501,-0.1046783
6505,0.842791,0.8545501,-0.1046783
6507,0.8437192,0.8552368,-0.1065312
6510,0.8444148,0.8552368,-0.1065312
6512,0.8444148,0.8552368,-0.1065312
6514,0.8439512,0.8547791,-0.1065312
6517,0.8439512,0.8547791,-0.1065312
6519,0.8434873,0.8538629,-0.1065312
6521,0.8434873,0.8538629,-0.1065312
6524,0.8430232,0.8531751,-0.1083524
6526,0.8423266,0.8515682,-0.1101434
6529,0.8423266,0.8515682,-0.1101434
6532,0.8413968,0.8506485,-0.1083524
6534,0.8413968,0.8506485,-0.1083524
6536,0.8411642,0.8499581,-0.1101434
6538,0.8411642,0.8499581,-0.1101434
6541,0.8413968,0.8501883,-0.1119058
6543,0.8411642,0.8497278,-0.1101434
6545,0.8411642,0.8497278,-0.1101434
6548,0.8388348,0.847191,-0.1136409
6550,0.8388348,0.847191,-0.1136409
6552,0.8383681,0.8462666,-0.1153499
6555,0.8322775,0.8395343,-0.1170339
6557,0.8322775,0.8395343,-0.1170339
6559,0.8301588,0.8369665,-0.1203313
6562,0.8301588,0.8369665,-0.1203313
6564,0.8259051,0.8320423,-0.1235407
6566,0.8259051,0.8320423,-0.1235407
6569,0.8242449,0.8301588,-0.1251145
6572,0.8204377,0.8256681,-0.1297215
6574,0.8204377,0.8256681,-0.1297215
6577,0.8192443,0.8242449,-0.132704
6579,0.8192443,0.8242449,-0.132704
6581,0.8190054,0.8235324,-0.1356209
6584,0.8190054,0.8230571,-0.1398823
6586,0.8190054,0.8230571,-0.1398823
6588,0.8166127,0.8206762,-0.14537
6591,0.8166127,0.8206762,-0.14537
6593,0.8158936,0.8192443,-0.1467098
6595,0.8158936,0.8192443,-0.1467098
6598,0.8163731,0.8192443,-0.1532334
6600,0.8168523,0.8192443,-0.1582588
6602,0.8168523,0.8192443,-0.1582588
6605,0.8185275,0.8204377,-0.1607126
6607,0.8185275,0.8204377,-0.1607126
6609,0.8209146,0.8216294,-0.1678588
6612,0.8194832,0.8194832,-0.1735894
6615,0.8194832,0.8194832,-0.1735894
6617,0.8170919,0.8161334,-0.1802258
6620,0.8170919,0.8161334,-0.1802258
6622,0.7855918,0.7835966,-0.1813082
6624,0.7855918,0.7835966,-0.1813082
6626,0.7380747,0.7346201,-0.183454
6629,0.7066523,0.7022079,-0.183454
6631,0.7066523,0.7022079,-0.183454
6633,0.6575991,0.6513204,-0.1855749
6636,0.6575991,0.6513204,-0.1855749
6638,0.6327289,0.6255757,-0.1866263
6640,0.6327289,0.6255757,-0.1866263
6643,0.5934729,0.5845029,-0.1897456
6645,0.5784457,0.5688952,-0.1897456
6647,0.5784457,0.5688952,-0.1897456
6650,0.5542608,0.5428462,-0.191797
6652,0.5542608,0.5428462,-0.191797
6654,0.5467969,0.5344914,-0.1938267
6658,0.5322903,0.5196414,-0.1968319
6660,0.5322903,0.5196414,-0.1968319
6662,0.53008,0.5169988,-0.1968319
6665,0.53008,0.5169988,-0.1968319
6667,0.5245137,0.5105241,-0.1988102
6669,0.5245137,0.5105241,-0.1988102
6672,0.5241405,0.509757,-0.2007689
6674,0.5211454,0.5062904,-0.2027088
6676,0.5211454,0.5062904,-0.2027088
6679,0.5207698,0.5059038,-0.2036718
6681,0.5207698,0.5059038,-0.2036718
6683,0.5185105,0.5024107,-0.2055842
6686,0.518133,0.5016313,-0.2074791
6688,0.518133,0.5016313,-0.2074791
6690,0.5151029,0.4985009,-0.2074791
6693,0.5151029,0.4985009,-0.2074791
6695,0.5143426,0.4977152,-0.2102893
6697,0.5143426,0.4977152,-0.2102893
6701,0.5120549,0.4953507,-0.2102893
6703,0.5132,0.4953507,-0.2112177
6705,0.5132,0.4953507,-0.2112177
6708,0.5128186,0.4957456,-0.2112177
6710,0.5128186,0.4957456,-0.2112177
6712,0.5151029,0.4977152,-0.2102893
6714,0.5151029,0.4977152,-0.2102893
6717,0.5166202,0.5000685,-0.2093567
6719,0.5158621,0.4985009,-0.2093567
6721,0.5158621,0.4985009,-0.2093567
6724,0.513962,0.4961402,-0.20842
6726,0.513962,0.4961402,-0.20842
6728,0.5158621,0.4985009,-0.20842
6731,0.518133,0.5008504,-0.2055842
6733,0.518133,0.5008504,-0.2055842
6735,0.5185105,0.501241,-0.2055842
6738,0.5185105,0.501241,-0.2055842
6740,0.5203939,0.5035778,-0.2065338
6743,0.5203939,0.5035778,-0.2065338
6746,0.5203939,0.5035778,-0.2074791
6748,0.5215207,0.5043544,-0.20842
6750,0.5215207,0.5043544,-0.20842
6753,0.5218958,0.5043544,-0.20842
6755,0.5218958,0.5043544,-0.20842
6757,0.5211454,0.5031891,-0.20842
6760,0.5200178,0.5024107,-0.2102893
6762,0.5200178,0.5024107,-0.2102893
6764,0.5200178,0.5028,-0.2093567
6767,0.5200178,0.5028,-0.2093567
6769,0.5192646,0.5016313,-0.2102893
6771,0.5192646,0.5016313,-0.2102893
6774,0.5196414,0.5028,-0.20842
6776,0.5203939,0.5031891,-0.2093567
6778,0.5203939,0.5031891,-0.2093567
6781,0.5203939,0.5031891,-0.20842
6784,0.5203939,0.5031891,-0.20842
6786,0.5196414,0.5028,-0.2074791
6789,0.5173771,0.5004597,-0.2093567
6791,0.5173771,0.5004597,-0.2093567
6793,0.5147229,0.4981082,-0.2093567
6796,0.5147229,0.4981082,-0.2093567
6798,0.5143426,0.4985009,-0.2074791
6800,0.5143426,0.4985009,-0.2074791
6802,0.513962,0.4981082,-0.20842
6805,0.5132,0.4985009,-0.2065338
6807,0.5132,0.4985009,-0.2065338
6809,0.5128186,0.4981082,-0.2065338
6812,0.5128186,0.4981082,-0.2065338
6814,0.5143426,0.5004597,-0.2046302
6816,0.5143426,0.5004597,-0.2046302
6819,0.5143426,0.5008504,-0.2055842
6821,0.5120549,0.4996771,-0.2017412
6823,0.5120549,0.4996771,-0.2017412
6827,0.5109072,0.4988932,-0.2017412
6829,0.509757,0.4985009,-0.2007689
6831,0.5109072,0.4992853,-0.199792
6834,0.5116726,0.5000685,-0.1988102
6836,0.5116726,0.5000685,-0.1988102
6838,0.5093729,0.4988932,-0.1978235
6841,0.5093729,0.4988932,-0.1978235
6843,0.508604,0.4981082,-0.1988102
6845,0.508604,0.4981082,-0.1988102
6848,0.5066768,0.4957456,-0.1968319
6850,0.5055169,0.4949555,-0.1968319
6852,0.5055169,0.4949555,-0.1968319
6855,0.5035778,0.4929749,-0.1938267
6857,0.5035778,0.4929749,-0.1938267
6859,0.5031891,0.4929749,-0.1928145
6862,0.5000685,0.4909863,-0.1907741
6864,0.5000685,0.4909863,-0.1907741
6866,0.4992853,0.4901886,-0.1887116
6870,0.4992853,0.4901886,-0.1887116
6872,0.5016313,0.4921804,-0.1876719
6874,0.5016313,0.4921804,-0.1876719
6877,0.5047422,0.4957456,-0.1855749
6879,0.5055169,0.4969283,-0.1845175
6881,0.5055169,0.4969283,-0.1845175
6884,0.5066768,0.4981082,-0.1823843
6886,0.5066768,0.4981082,-0.1823843
6888,0.5062904,0.4988932,-0.1823843
6890,0.5062904,0.4988932,-0.1823843
6893,0.5055169,0.4985009,-0.1780411
6895,0.5066768,0.4992853,-0.174713
6897,0.5066768,0.4992853,-0.174713
6900,0.5070629,0.5004597,-0.1724585
6902,0.5070629,0.5004597,-0.1724585
6904,0.508604,0.5016313,-0.1713202
6907,0.5109072,0.5039662,-0.1713202
6909,0.5109072,0.5039662,-0.1713202
6912,0.5439265,0.5385033,-0.1735894
6915,0.5439265,0.5385033,-0.1735894
6917,0.5951191,0.5901666,-0.1780411
6919,0.5951191,0.5901666,-0.1780411
6922,0.5964329,0.5914913,-0.1769387
6924,0.5993783,0.5951191,-0.174713
6926,0.5993783,0.5951191,-0.174713
6929,0.6243232,0.6208661,-0.1758294
6931,0.6243232,0.6208661,-0.1758294
6933,0.6632286,0.6611602,-0.1758294
6936,0.6537194,0.6516207,-0.174713
6938,0.6537194,0.6516207,-0.174713
6940,0.6464956,0.6449805,-0.1735894
6943,0.6416347,0.6398023,-0.1724585
6945,0.660568,0.6596788,-0.1724585
6947,0.660568,0.6596788,-0.1724585
6950,0.6772422,0.6766641,-0.1724585
6952,0.7102429,0.7102429,-0.1735894
6955,0.7102429,0.7102429,-0.1735894
6958,0.7263159,0.7265852,-0.174713
6960,0.7263159,0.7265852,-0.174713
6962,0.7206361,0.721179,-0.1735894
6965,0.7052664,0.7055438,-0.1713202
6967,0.7052664,0.7055438,-0.1713202
6969,0.6996954,0.7005339,-0.1701742
6972,0.6996954,0.7005339,-0.1701742
6974,0.7058211,0.7069291,-0.1713202
6976,0.7058211,0.7069291,-0.1713202
6978,0.711894,0.7127182,-0.1724585
6981,0.7412493,0.7433581,-0.1735894
6983,0.7412493,0.7433581,-0.1735894
6985,0.7633579,0.7659171,-0.174713
6988,0.7633579,0.7659171,-0.174713
6990,0.7727842,0.7755645,-0.1758294
6992,0.7727842,0.7755645,-0.1758294
6995,0.7810954,0.7840959,-0.1758294
6998,0.7962303,0.7996635,-0.1769387
7000,0.7962303,0.7996635,-0.1769387
7003,0.8028382,0.8064859,-0.1769387
7005,0.8028382,0.8064859,-0.1769387
7007,0.8064859,0.8106001,-0.1769387
7010,0.814213,0.8182884,-0.1780411
7012,0.814213,0.8182884,-0.1780411
7014,0.8156537,0.8197219,-0.1791368
7017,0.8156537,0.8197219,-0.1791368
7019,0.8170919,0.8216294,-0.1791368
7021,0.8170919,0.8216294,-0.1791368
7024,0.81781,0.8221055,-0.1780411
7026,0.8168523,0.8223435,-0.1758294
7028,0.8168523,0.8223435,-0.1758294
7031,0.8163731,0.8221055,-0.174713
7033,0.8163731,0.8221055,-0.174713
7035,0.8163731,0.8225815,-0.174713
7038,0.8151737,0.8213912,-0.1713202
7041,0.8151737,0.8213912,-0.1713202
7043,0.8156537,0.8218675,-0.1713202
7046,0.8156537,0.8218675,-0.1713202
7048,0.8127698,0.8194832,-0.1678588
7050,0.8127698,0.8194832,-0.1678588
7053,0.812529,0.8192443,-0.166689
7055,0.8110828,0.81781,-0.165511
7057,0.8110828,0.81781,-0.165511
7059,0.811324,0.8182884,-0.165511
7062,0.811324,0.8182884,-0.165511
7064,0.804056,0.811324,-0.1619255
7066,0.8016186,0.8091505,-0.1594904
7069,0.8016186,0.8091505,-0.1594904
7071,0.7942618,0.8023506,-0.1557664
7073,0.7942618,0.8023506,-0.1557664
7076,0.7922885,0.8003972,-0.1545051
7078,0.7922885,0.8003972,-0.1545051
7080,0.7927822,0.8013745,-0.1519511
7084,0.7935224,0.8021067,-0.1519511
7086,0.7935224,0.8021067,-0.1519511
7088,0.7912999,0.8006416,-0.1467098
7091,0.7912999,0.8006416,-0.1467098
7093,0.7905577,0.8006416,-0.1440177
7095,0.7905577,0.8006416,-0.1440177
7098,0.7915472,0.8013745,-0.1412742
7100,0.7922885,0.8021067,-0.1398823
7102,0.7922885,0.8021067,-0.1398823
7105,0.7910526,0.8013745,-0.1370561
7107,0.7910526,0.8013745,-0.1370561
7109,0.7910526,0.8013745,-0.1341704
7112,0.7858408,0.7957386,-0.132704
7114,0.7858408,0.7957386,-0.132704
7116,0.7838463,0.7942618,-0.1297215
7119,0.7838463,0.7942618,-0.1297215
7121,0.7813459,0.7917944,-0.1266688
7123,0.7813459,0.7917944,-0.1266688
7127,0.7800927,0.7908052,-0.1251145
7129,0.7798419,0.7900625,-0.1235407
7131,0.7798419,0.7900625,-0.1235407
7134,0.7798419,0.7905577,-0.1219466
7136,0.7798419,0.7905577,-0.1219466
7138,0.7810954,0.7912999,-0.1219466
7141,0.7828471,0.7930291,-0.1203313
7143,0.7828471,0.7930291,-0.1203313
7145,0.783097,0.7932757,-0.1203313
7147,0.783097,0.7932757,-0.1203313
7150,0.7835966,0.7937689,-0.1186941
7152,0.7840959,0.7937689,-0.1203313
7154,0.7833468,0.7937689,-0.1203313
7157,0.7838463,0.7935224,-0.1235407
7159,0.7838463,0.7935224,-0.1235407
7161,0.7848442,0.7945082,-0.1235407
7164,0.7848442,0.7945082,-0.1235407
7166,0.7863387,0.7962303,-0.1251145
7169,0.7863387,0.7962303,-0.1251145
7172,0.7880787,0.7981939,-0.1251145
7174,0.7908052,0.800886,-0.1251145
7176,0.7908052,0.800886,-0.1251145
7179,0.7917944,0.8021067,-0.1266688
7181,0.7917944,0.8021067,-0.1266688
7183,0.7925354,0.8025945,-0.1266688
7186,0.7937689,0.8035691,-0.1297215
7188,0.7937689,0.8035691,-0.1297215
7190,0.7940154,0.8038125,-0.1312212
7193,0.7940154,0.8038125,-0.1312212
7195,0.7957386,0.8042993,-0.1356209
7197,0.7957386,0.8042993,-0.1356209
7200,0.7957386,0.8045425,-0.1356209
7202,0.798684,0.8072135,-0.1398823
7204,0.798684,0.8072135,-0.1398823
7207,0.8003972,0.8089085,-0.1412742
7209,0.8003972,0.8089085,-0.1412742
7212,0.800886,0.8084246,-0.1440177
7215,0.7996635,0.8072135,-0.1480375
7217,0.7996635,0.8072135,-0.1480375
7219,0.7991739,0.8064859,-0.1519511
7222,0.7991739,0.8064859,-0.1519511
7224,0.7996635,0.8062432,-0.1545051
7226,0.7996635,0.8062432,-0.1545051
7229,0.7996635,0.8064859,-0.1594904
7231,0.7999081,0.8057577,-0.1631294
7233,0.7999081,0.8057577,-0.1631294
7235,0.8001527,0.8057577,-0.165511
7238,0.8001527,0.8057577,-0.165511
7240,0.7378095,0.7430948,-0.1643245
7242,0.7146374,0.7195491,-0.1643245
7245,0.7146374,0.7195491,-0.1643245
7247,0.7179157,0.7225344,-0.1678588
7249,0.7179157,0.7225344,-0.1678588
7252,0.6960504,0.699975,-0.1690205
7255,0.6960504,0.699975,-0.1690205
7257,0.6766641,0.6801254,-0.1690205
7260,0.6596788,0.6632286,-0.1690205
7262,0.6596788,0.6632286,-0.1690205
7264,0.6167554,0.6196041,-0.166689
7267,0.6167554,0.6196041,-0.166689
7269,0.5997046,0.6023093,-0.165511
7271,0.5997046,0.6023093,-0.165511
7274,0.6246366,0.6268256,-0.1713202
7276,0.6333472,0.6348901,-0.1735894
7278,0.6333472,0.6348901,-0.1735894
7281,0.6116581,0.6122975,-0.1724585
7283,0.6116581,0.6122975,-0.1724585
7285,0.6023093,0.6029587,-0.1713202
7288,0.6311808,0.6314908,-0.174713
7290,0.6311808,0.6314908,-0.174713
7292,0.6413296,0.6416347,-0.1758294
7296,0.6413296,0.6416347,-0.1758294
7298,0.628073,0.6286958,-0.174713
7300,0.628073,0.6286958,-0.174713
7303,0.628073,0.6286958,-0.174713
7305,0.6065179,0.6065179,-0.1713202
7307,0.6065179,0.6065179,-0.1713202
7310,0.5878411,0.5875081,-0.1690205
7312,0.5878411,0.5875081,-0.1690205
7314,0.5549665,0.5542608,-0.165511
7317,0.5421248,0.5414024,-0.165511
7319,0.5421248,0.5414024,-0.165511
7321,0.5267473,0.5248867,-0.1643245
7323,0.5267473,0.5248867,-0.1643245
7326,0.5196414,0.5177552,-0.1643245
7328,0.5196414,0.5177552,-0.1643245
7330,0.5082192,0.5066768,-0.1643245
7333,0.5031891,0.501241,-0.1631294
7335,0.5031891,0.501241,-0.1631294
7337,0.4925778,0.4901886,-0.1643245
7341,0.4925778,0.4901886,-0.1643245
7343,0.4881886,0.4853748,-0.165511
7345,0.4881886,0.4853748,-0.165511
7348,0.4813265,0.4784724,-0.165511
7350,0.4788812,0.4764233,-0.165511
7352,0.4788812,0.4764233,-0.165511
7355,0.5359538,0.5337587,-0.1713202
7357,0.5359538,0.5337587,-0.1713202
7359,0.5567266,0.5549665,-0.174713
7362,0.5699261,0.5688952,-0.174713
7364,0.5699261,0.5688952,-0.174713
7366,0.5675176,0.5664824,-0.1735894
7369,0.5675176,0.5664824,-0.1735894
7371,0.5908293,0.590498,-0.174713
7373,0.5908293,0.590498,-0.174713
7376,0.6116581,0.6122975,-0.1758294
7378,0.6293179,0.63025,-0.1769387
7380,0.6293179,0.63025,-0.1769387
7384,0.6161205,0.6170725,-0.1735894
7386,0.6161205,0.6170725,-0.1735894
7388,0.6355062,0.6540186,-0.1758294
7391,0.6655847,0.6682253,-0.1758294
7393,0.6655847,0.6682253,-0.1758294
7395,0.6543178,0.6570037,-0.1735894
7398,0.6543178,0.6570037,-0.1735894
7400,0.6379647,0.6416347,-0.1701742
7402,0.6379647,0.6416347,-0.1701742
7405,0.6570037,0.660568,-0.1690205
7407,0.6867107,0.6912548,-0.1701742
7409,0.6867107,0.6912548,-0.1701742
7411,0.7083117,0.7132671,-0.1701742
7414,0.7083117,0.7132671,-0.1701742
7416,0.742568,0.7483428,-0.1713202
7418,0.758472,0.7646385,-0.1724585
7421,0.758472,0.7646385,-0.1724585
7424,0.7845948,0.7908052,-0.174713
7426,0.7845948,0.7908052,-0.174713
7429,0.7959845,0.8023506,-0.174713
7431,0.7959845,0.8023506,-0.174713
7433,0.8146936,0.8218675,-0.1758294
7436,0.8223435,0.8294513,-0.1758294
7438,0.8223435,0.8294513,-0.1758294
7440,0.8289794,0.8360308,-0.1769387
7443,0.8289794,0.8360308,-0.1769387
7445,0.8362648,0.8437192,-0.1769387
7447,0.8362648,0.8437192,-0.1769387
7450,0.8379012,0.8455727,-0.1769387
7452,0.8397673,0.8476528,-0.1769387
7454,0.8397673,0.8476528,-0.1769387
7457,0.8369665,0.8448781,-0.1780411
7459,0.8369665,0.8448781,-0.1780411
7461,0.8367326,0.8446465,-0.1769387
7464,0.835094,0.8432553,-0.1769387
7467,0.835094,0.8432553,-0.1769387
7469,0.8353283,0.8434873,-0.1769387
7472,0.8353283,0.8434873,-0.1769387
7474,0.8320423,0.840466,-0.1758294
7476,0.8320423,0.840466,-0.1758294
7479,0.8315719,0.8402332,-0.1758294
7481,0.8280347,0.8369665,-0.174713
7483,0.8280347,0.8369665,-0.174713
7486,0.8273254,0.8364988,-0.174713
7488,0.8273254,0.8364988,-0.174713
7490,0.8221055,0.8315719,-0.1724585
7493,0.8209146,0.8303944,-0.1724585
7495,0.8209146,0.8303944,-0.1724585
7497,0.8158936,0.8256681,-0.1701742
7499,0.8158936,0.8256681,-0.1701742
7502,0.8144533,0.8244823,-0.1678588
7504,0.8144533,0.8244823,-0.1678588
7506,0.8130105,0.8230571,-0.166689
7510,0.8127698,0.8230571,-0.165511
7512,0.8127698,0.8230571,-0.165511
7514,0.812529,0.8228193,-0.1643245
7517,0.8127698,0.8230571,-0.1643245
7519,0.8130105,0.82377,-0.1631294
7521,0.8120472,0.8223435,-0.1631294
7524,0.8120472,0.8223435,-0.1631294
7526,0.8110828,0.8213912,-0.1607126
7528,0.8110828,0.8213912,-0.1607126
7531,0.8086666,0.8187665,-0.1594904
7533,0.8086666,0.8187665,-0.1594904
7535,0.8079404,0.8182884,-0.1582588
7538,0.8079404,0.8187665,-0.1594904
7540,0.8079404,0.8187665,-0.1594904
7542,0.8089085,0.8192443,-0.1594904
7545,0.8089085,0.8192443,-0.1594904
7547,0.8110828,0.8213912,-0.1594904
7549,0.8110828,0.8213912,-0.1594904
7553,0.8151737,0.825194,-0.1594904
7555,0.8151737,0.8256681,-0.1594904
7557,0.8151737,0.8256681,-0.1594904
7560,0.8161334,0.8263788,-0.1594904
7562,0.8161334,0.8263788,-0.1594904
7564,0.8170919,0.8268523,-0.1607126
7567,0.8180492,0.828271,-0.1607126
7569,0.8180492,0.828271,-0.1607126
7571,0.8170919,0.8266156,-0.1619255
7574,0.8170919,0.8266156,-0.1619255
7576,0.8154138,0.825194,-0.1619255
7578,0.8154138,0.825194,-0.1619255
7581,0.8139727,0.8235324,-0.1631294
7583,0.8120472,0.8218675,-0.1631294
7585,0.8120472,0.8218675,-0.1631294
7587,0.8106001,0.8197219,-0.165511
7590,0.8106001,0.8197219,-0.165511
7592,0.8093922,0.8187665,-0.165511
7595,0.8091505,0.8180492,-0.1678588
7598,0.8091505,0.8180492,-0.1678588
7600,0.8101172,0.8190054,-0.1678588
7602,0.8101172,0.8190054,-0.1678588
7605,0.8098756,0.8182884,-0.1701742
7607,0.8098756,0.8182884,-0.1701742
7609,0.8089085,0.8173313,-0.1724585
7612,0.8081825,0.8166127,-0.1735894
7614,0.8081825,0.8166127,-0.1735894
7616,0.8081825,0.8158936,-0.1758294
7619,0.8081825,0.8158936,-0.1758294
7621,0.7755645,0.783097,-0.1735894
7623,0.7755645,0.783097,-0.1735894
7626,0.7268545,0.7338206,-0.1690205
7628,0.7284679,0.7356848,-0.1701742
7630,0.7284679,0.7356848,-0.1701742
7633,0.7295417,0.7364823,-0.1701742
7635,0.7295417,0.7364823,-0.1701742
7638,0.7055438,0.711894,-0.1713202
7641,0.6847132,0.6906884,-0.1701742
7643,0.6847132,0.6906884,-0.1701742
7645,0.6769533,0.6824232,-0.1713202
7648,0.6769533,0.6824232,-0.1713202
7650,0.6849989,0.6901216,-0.1735894
7652,0.6849989,0.6901216,-0.1735894
7655,0.6737661,0.6783969,-0.1758294
7657,0.6590852,0.6632286,-0.1758294
7659,0.6590852,0.6632286,-0.1758294
7662,0.6274496,0.6308707,-0.174713
7664,0.6274496,0.6308707,-0.174713
7666,0.6110179,0.6145305,-0.1735894
7668,0.6148488,0.6173896,-0.1758294
7671,0.6148488,0.6173896,-0.1758294
7673,0.6283845,0.6311808,-0.1791368
7675,0.6283845,0.6311808,-0.1791368
7678,0.6283845,0.6305605,-0.1802258
7681,0.6283845,0.6305605,-0.1802258
7683,0.6189722,0.6214961,-0.1802258
7686,0.5967609,0.5990517,-0.1780411
7688,0.5967609,0.5990517,-0.1780411
7690,0.5848376,0.5865081,-0.1780411
7693,0.5848376,0.5865081,-0.1780411
7695,0.5747126,0.5760729,-0.1769387
7697,0.5546138,0.5556712,-0.1735894
7700,0.5546138,0.5556712,-0.1735894
7702,0.5464389,0.5475121,-0.1724585
7704,0.5464389,0.5475121,-0.1724585
7707,0.5326577,0.5337587,-0.1690205
7709,0.5326577,0.5337587,-0.1690205
7711,0.5263757,0.5274898,-0.1690205
7714,0.57743,0.5797972,-0.1724585
7716,0.57743,0.5797972,-0.1724585
7718,0.5961047,0.5983981,-0.174713
7721,0.5961047,0.5983981,-0.174713
7724,0.5908293,0.5934729,-0.1713202
7726,0.5908293,0.5934729,-0.1713202
7729,0.5885065,0.5914913,-0.1701742
7731,0.6330382,0.6364292,-0.1724585
7733,0.6330382,0.6364292,-0.1724585
7736,0.6498165,0.6531205,-0.1724585
7738,0.6498165,0.6531205,-0.1724585
7740,0.6351982,0.6385778,-0.1690205
7743,0.6296288,0.6333472,-0.1678588
7745,0.6296288,0.6333472,-0.1678588
7747,0.6638185,0.6673463,-0.1701742
7750,0.6638185,0.6673463,-0.1701742
7752,0.6766641,0.6807005,-0.1713202
7754,0.6766641,0.6807005,-0.1713202
7756,0.7146374,0.719005,-0.1735894
7759,0.7292733,0.7338206,-0.1758294
7761,0.7292733,0.7338206,-0.1758294
7763,0.7569224,0.7620752,-0.1769387
7767,0.7569224,0.7620752,-0.1769387
7769,0.7679582,0.7730374,-0.1780411
7771,0.7858408,0.7912999,-0.1780411
7774,0.7858408,0.7912999,-0.1780411
7776,0.7932757,0.798929,-0.1791368
7778,0.7932757,0.798929,-0.1791368
7781,0.800886,0.8062432,-0.1791368
7783,0.800886,0.8062432,-0.1791368
7785,0.8130105,0.8187665,-0.1802258
7788,0.8154138,0.8211529,-0.1802258
7790,0.8154138,0.8211529,-0.1802258
7792,0.8199606,0.826142,-0.1802258
7795,0.8199606,0.826142,-0.1802258
7797,0.8232948,0.8294513,-0.1802258
7799,0.8296872,0.8355626,-0.1791368
7802,0.8296872,0.8355626,-0.1791368
7804,0.829923,0.8362648,-0.1791368
7806,0.829923,0.8362648,-0.1791368
7810,0.8318071,0.8381346,-0.1780411
7812,0.8318071,0.8381346,-0.1780411
7814,0.8320423,0.8386015,-0.1769387
7817,0.8327476,0.8393012,-0.1758294
7819,0.8327476,0.8393012,-0.1758294
7821,0.8353283,0.8418618,-0.1758294
7824,0.8353283,0.8418618,-0.1758294
7826,0.8367326,0.8432553,-0.174713
7828,0.8367326,0.8432553,-0.174713
7831,0.8395343,0.8462666,-0.1724585
7833,0.8411642,0.8474219,-0.1735894
7835,0.8411642,0.8474219,-0.1735894
7838,0.8413968,0.8481144,-0.1713202
7840,0.8413968,0.8481144,-0.1713202
7842,0.8411642,0.8478836,-0.1724585
7844,0.8388348,0.845804,-0.1724585
7847,0.8388348,0.845804,-0.1724585
7849,0.8374339,0.8444148,-0.1724585
7852,0.8374339,0.8444148,-0.1724585
7855,0.8343908,0.840466,-0.1724585
7857,0.8343908,0.840466,-0.1724585
7859,0.8322775,0.8388348,-0.1735894
7862,0.8329825,0.839068,-0.1735894
7864,0.8329825,0.839068,-0.1735894
7866,0.8336869,0.840466,-0.1724585
7869,0.8336869,0.840466,-0.1724585
7871,0.8360308,0.8425589,-0.1724585
7873,0.8367326,0.8432553,-0.1724585
7876,0.8367326,0.8432553,-0.1724585
7878,0.8372003,0.8434873,-0.1735894
7880,0.8372003,0.8434873,-0.1735894
7883,0.8369665,0.8434873,-0.1735894
7885,0.8369665,0.8434873,-0.1735894
7887,0.8372003,0.8432553,-0.174713
7890,0.8374339,0.8434873,-0.174713
7892,0.8374339,0.8434873,-0.174713
7895,0.8376676,0.8437192,-0.174713
7898,0.8376676,0.8437192,-0.174713
7900,0.840466,0.8464977,-0.174713
7902,0.840466,0.8464977,-0.174713
7905,0.8413968,0.8474219,-0.1769387
7907,0.8413968,0.8481144,-0.1758294
7909,0.8413968,0.8481144,-0.1758294
7912,0.8418618,0.848345,-0.1780411
7914,0.8418618,0.848345,-0.1780411
7916,0.8425589,0.8485757,-0.1791368
7919,0.842791,0.8488063,-0.1791368
7921,0.842791,0.8488063,-0.1791368
7923,0.7775803,0.7838463,-0.174713
7926,0.7775803,0.7838463,-0.174713
7928,0.7532945,0.7592455,-0.1735894
7930,0.7532945,0.7592455,-0.1735894
7932,0.7543329,0.7602757,-0.174713
7936,0.7540734,0.760533,-0.174713
7938,0.7540734,0.760533,-0.174713
7940,0.7072059,0.7129927,-0.1735894
7943,0.7072059,0.7129927,-0.1735894
7945,0.6889865,0.6946434,-0.1713202
7947,0.7069291,0.7113441,-0.1758294
7950,0.7069291,0.7113441,-0.1758294
7952,0.7127182,0.7170975,-0.1769387
7954,0.7127182,0.7170975,-0.1769387
7957,0.6760855,0.6801254,-0.174713
7959,0.6760855,0.6801254,-0.174713
7961,0.6617518,0.6655847,-0.174713
7964,0.6404136,0.644677,-0.1724585
7966,0.6404136,0.644677,-0.1724585
7968,0.6065179,0.6106976,-0.1690205
7971,0.6065179,0.6106976,-0.1690205
7973,0.5911604,0.5951191,-0.1690205
7975,0.5671728,0.5706123,-0.1690205
7979,0.5671728,0.5706123,-0.1690205
7981,0.55778,0.5605795,-0.1690205
7983,0.55778,0.5605795,-0.1690205
7986,0.5791218,0.5821548,-0.1724585
7988,0.5791218,0.5821548,-0.1724585
7990,0.6032831,0.6065179,-0.174713
7993,0.6227542,0.6258884,-0.1769387
7995,0.6227542,0.6258884,-0.1769387
7997,0.616438,0.6199199,-0.1758294
8000,0.616438,0.6199199,-0.1758294
8002,0.6135744,0.6170725,-0.1758294
8004,0.6135744,0.6170725,-0.1758294
8007,0.5957764,0.5990517,-0.1724585
8009,0.5885065,0.591822,-0.1713202
8011,0.5885065,0.591822,-0.1713202
8014,0.5733491,0.5764125,-0.1690205
8016,0.5733491,0.5764125,-0.1690205
8018,0.5668277,0.5702693,-0.1678588
8020,0.5612772,0.564406,-0.166689
8024,0.5612772,0.564406,-0.166689
8026,0.5532007,0.5556712,-0.1678588
8028,0.5532007,0.5556712,-0.1678588
8031,0.5834977,0.5858405,-0.1713202
8033,0.5834977,0.5858405,-0.1713202
8035,0.628073,0.63025,-0.1769387
8038,0.6252628,0.6274496,-0.1769387
8040,0.6252628,0.6274496,-0.1769387
8042,0.6208661,0.6227542,-0.1769387
8045,0.6208661,0.6227542,-0.1769387
8047,0.645587,0.6480073,-0.1802258
8049,0.6832828,0.6861406,-0.1845175
8052,0.6832828,0.6861406,-0.1845175
8054,0.6731851,0.675796,-0.1823843
8056,0.6731851,0.675796,-0.1823843
8059,0.6647022,0.6676395,-0.1813082
8061,0.6581939,0.6611602,-0.1802258
8064,0.6440698,0.6464956,-0.1780411
8067,0.6233823,0.6255757,-0.174713
8069,0.6233823,0.6255757,-0.174713
8071,0.6437659,0.6464956,-0.1769387
8074,0.6437659,0.6464956,-0.1769387
8076,0.6611602,0.6638185,-0.1791368
8078,0.6611602,0.6638185,-0.1791368
8081,0.6647022,0.6673463,-0.1780411
8083,0.6561096,0.6590852,-0.1769387
8085,0.6561096,0.6590852,-0.1769387
8088,0.6682253,0.6711472,-0.174713
8090,0.6682253,0.6711472,-0.174713
8092,0.697174,0.7005339,-0.1780411
8095,0.6861406,0.6895542,-0.1758294
8097,0.6861406,0.6895542,-0.1758294
8099,0.6772422,0.680413,-0.1735894
8102,0.6772422,0.680413,-0.1735894
8104,0.6895542,0.6929511,-0.1758294
8107,0.6895542,0.6929511,-0.1758294
8109,0.7052664,0.7088641,-0.1769387
8112,0.7367479,0.7407211,-0.1813082
8114,0.7367479,0.7407211,-0.1813082
8116,0.7519946,0.7561465,-0.1813082
8119,0.7519946,0.7561465,-0.1813082
8121,0.7430948,0.747558,-0.1802258
8123,0.7260464,0.7300779,-0.1769387
8126,0.7260464,0.7300779,-0.1769387
8128,0.719005,0.7236168,-0.1769387
8130,0.719005,0.7236168,-0.1769387
8133,0.7249676,0.7292733,-0.1780411
8135,0.7249676,0.7292733,-0.1780411
8137,0.7300779,0.7343537,-0.1791368
8140,0.6943616,0.6982958,-0.174713
8142,0.6943616,0.6982958,-0.174713
8144,0.680988,0.6849989,-0.1724585
8147,0.680988,0.6849989,-0.1724585
8150,0.7055438,0.709416,-0.1758294
8152,0.7252374,0.7292733,-0.1780411
8155,0.7252374,0.7292733,-0.1780411
8157,0.7551107,0.7592455,-0.1813082
8159,0.7551107,0.7592455,-0.1813082
8162,0.7664279,0.7707559,-0.1823843
8164,0.7664279,0.7707559,-0.1823843
8166,0.7967216,0.8011303,-0.1845175
8169,0.8084246,0.8130105,-0.1855749
8171,0.8084246,0.8130105,-0.1855749
8173,0.8259051,0.8308656,-0.1866263
8176,0.8259051,0.8308656,-0.1866263
8178,0.8329825,0.8381346,-0.1876719
