time,turnedAngle,pitchAngle,yawAngle
3,0,0,0
698328,0,0,0
698331,0,0,0
698333,0.6841414,0.6867107,-0.03426402
0,0.6858553,0.6884183,-0.02797646
1,0.6926687,0.6954879,-0.03956468
2,0.6926687,0.6954879,-0.03956468
4,0.694925,0.6977351,-0.03426402
5,0.694925,0.6977351,-0.03426402
7,0.6982958,0.7010924,-0.03426402
8,0.6982958,0.7010924,-0.03426402
10,0.7049889,0.7080355,-0.03956468
12,0.7049889,0.7080355,-0.03956468
14,0.7080355,0.7113441,-0.03956468
16,0.7080355,0.7113441,-0.03956468
19,0.7102429,0.7132671,-0.03956468
21,0.7102429,0.7132671,-0.03956468
23,0.711894,0.7151849,-0.04423466
25,0.711894,0.7151849,-0.04423466
27,0.7124436,0.7154584,-0.04423466
29,0.7132671,0.7165515,-0.04423466
32,0.7132671,0.7165515,-0.04423466
34,0.7146374,0.7184606,-0.03956468
36,0.7146374,0.7184606,-0.03956468
38,0.7162784,0.7192771,-0.04423466
40,0.7162784,0.7192771,-0.04423466
43,0.7181882,0.7217214,-0.03956468
46,0.7181882,0.7217214,-0.03956468
48,0.719821,0.7233464,-0.04423466
50,0.719821,0.7233464,-0.04423466
52,0.7209076,0.7244276,-0.04423466
54,0.7209076,0.7244276,-0.04423466
56,0.7279305,0.7308815,-0.04423466
58,0.7300779,0.7335538,-0.03956468
61,0.7300779,0.7335538,-0.03956468
63,0.7338206,0.7367479,-0.04423466
65,0.7338206,0.7367479,-0.04423466
67,0.7388696,0.7423044,-0.04845664
69,0.7388696,0.7423044,-0.04845664
71,0.741777,0.7446731,-0.04423466
74,0.741777,0.7446731,-0.04423466
76,0.7436213,0.7467723,-0.03956468
78,0.7436213,0.7467723,-0.03956468
80,0.7255072,0.7281993,-0.03956468
82,0.7255072,0.7281993,-0.03956468
84,0.697174,0.6994157,-0.03426402
88,0.6792617,0.680988,-0.02797646
90,0.6792617,0.680988,-0.02797646
92,0.6510199,0.652521,-0.01978234
94,0.6510199,0.652521,-0.01978234
96,0.6379647,0.6388841,0
98,0.6379647,0.6388841,0
100,0.6265134,0.6271377,0
103,0.6265134,0.6271377,0
105,0.6090934,0.6084505,0
107,0.6090934,0.6084505,0
109,0.6016592,0.6010084,0
112,0.598071,0.5970887,0
114,0.598071,0.5970887,0
116,0.5914913,0.589503,0
118,0.5914913,0.589503,0
121,0.5901666,0.5885065,0
123,0.5901666,0.5885065,0
125,0.5888388,0.5865081,0
128,0.5881739,0.5855064,0
131,0.5881739,0.5855064,0
133,0.5888388,0.5861744,0
135,0.5888388,0.5861744,0
137,0.589503,0.5858405,0
140,0.589503,0.5858405,0
142,0.5921526,0.5885065,0
144,0.5921526,0.5885065,0
146,0.5944612,0.590498,0
149,0.5961047,0.5914913,0.01978234
151,0.5961047,0.5914913,0.01978234
153,0.5983981,0.5938025,0
155,0.5983981,0.5938025,0
158,0.5997046,0.5951191,0.01978234
160,0.5997046,0.5951191,0.01978234
162,0.6003569,0.5957764,0.01978234
164,0.6003569,0.5957764,0.01978234
166,0.6023093,0.5967609,0.02797646
169,0.6036074,0.5974163,0.01978234
172,0.6036074,0.5974163,0.01978234
174,0.6039315,0.5977437,0.01978234
176,0.6039315,0.5977437,0.01978234
179,0.6032831,0.5970887,0.03426402
181,0.6032831,0.5970887,0.03426402
183,0.6029587,0.5967609,0.02797646
185,0.6019843,0.5957764,0.02797646
188,0.605226,0.5983981,0.02797646
190,0.607807,0.6003569,0.02797646
192,0.607807,0.6003569,0.02797646
194,0.607807,0.6000308,0.03426402
197,0.607807,0.6000308,0.03426402
199,0.6071628,0.6003569,0.03426402
201,0.6071628,0.6003569,0.03426402
203,0.607807,0.6000308,0.03426402
206,0.6084505,0.6003569,0.03426402
208,0.6084505,0.6003569,0.03426402
210,0.6110179,0.6029587,0.03426402
212,0.6110179,0.6029587,0.03426402
216,0.612617,0.6049027,0.03956468
218,0.612617,0.6049027,0.03956468
220,0.6138933,0.6061952,0.03426402
222,0.6138933,0.6061952,0.03426402
225,0.6122975,0.6039315,0.03956468
227,0.6113381,0.6032831,0.03426402
229,0.6113381,0.6032831,0.03426402
231,0.615485,0.6084505,0.03426402
233,0.615485,0.6084505,0.03426402
236,0.6173896,0.6100564,0.03426402
238,0.6173896,0.6100564,0.03426402
240,0.6158028,0.608772,0.03426402
242,0.615167,0.607807,0.03426402
245,0.615167,0.607807,0.03426402
247,0.616438,0.6090934,0.03426402
249,0.616438,0.6090934,0.03426402
251,0.6167554,0.6094146,0.03426402
254,0.6167554,0.6094146,0.03426402
257,0.6161205,0.608772,0.03426402
259,0.6161205,0.608772,0.03426402
261,0.6161205,0.6094146,0.03426402
264,0.6167554,0.6100564,0.02797646
266,0.6167554,0.6100564,0.02797646
268,0.6170725,0.6106976,0.03426402
270,0.6170725,0.6106976,0.03426402
273,0.6382713,0.6330382,0.01978234
275,0.6382713,0.6330382,0.01978234
277,0.6558113,0.6513204,0.01978234
279,0.6573014,0.65342,0.01978234
282,0.6573014,0.65342,0.01978234
284,0.6578966,0.6540186,0
286,0.6578966,0.6540186,0
288,0.6731851,0.6702721,0.01978234
291,0.6731851,0.6702721,0.01978234
293,0.6968932,0.6954879,0
295,0.6968932,0.6954879,0
297,0.7121689,0.711069,0
300,0.7359507,0.7356848,0
303,0.7359507,0.7356848,0
305,0.7441474,0.7441474,0
307,0.7441474,0.7441474,0
309,0.751474,0.7517344,0
312,0.751474,0.7517344,0
314,0.7631016,0.7641266,0
316,0.7631016,0.7641266,0
318,0.7682129,0.7694854,-0.01978234
321,0.7750598,0.7763211,-0.01978234
323,0.7750598,0.7763211,-0.01978234
325,0.7783349,0.7798419,-0.01978234
327,0.7783349,0.7798419,-0.01978234
330,0.7615615,0.7628451,-0.01978234
332,0.7615615,0.7628451,-0.01978234
334,0.7375443,0.7383398,-0.01978234
336,0.7340872,0.7348864,0
339,0.7340872,0.7348864,0
342,0.7316842,0.7322189,0
344,0.7316842,0.7322189,0
346,0.7140896,0.7143636,-0.01978234
349,0.7140896,0.7143636,-0.01978234
351,0.6909717,0.6909717,0
353,0.6909717,0.6909717,0
355,0.6746368,0.6740565,0
357,0.661456,0.6599753,0
360,0.661456,0.6599753,0
362,0.6581939,0.6570037,0
364,0.6581939,0.6570037,0
366,0.6644077,0.6635236,0
369,0.6644077,0.6635236,0
371,0.6763749,0.6763749,0
373,0.6763749,0.6763749,0
375,0.6946434,0.6954879,-0.01978234
378,0.7024865,0.7038778,-0.01978234
380,0.7024865,0.7038778,-0.01978234
382,0.7091401,0.7107937,-0.02797646
385,0.7091401,0.7107937,-0.02797646
388,0.7225344,0.7244276,-0.03426402
390,0.7225344,0.7244276,-0.03426402
392,0.729005,0.7308815,-0.03426402
394,0.7179157,0.719821,-0.03426402
397,0.7179157,0.719821,-0.03426402
399,0.7013714,0.7027649,-0.02797646
401,0.7013714,0.7027649,-0.02797646
403,0.7044336,0.7060983,-0.02797646
406,0.7044336,0.7060983,-0.02797646
408,0.7072059,0.7088641,-0.02797646
410,0.7072059,0.7088641,-0.02797646
412,0.7154584,0.7173703,-0.02797646
415,0.7200928,0.7219925,-0.02797646
417,0.7200928,0.7219925,-0.02797646
419,0.7241574,0.7260464,-0.02797646
421,0.7241574,0.7260464,-0.02797646
423,0.7362165,0.7380747,-0.03426402
427,0.7362165,0.7380747,-0.03426402
429,0.7423044,0.7446731,-0.03956468
431,0.7423044,0.7446731,-0.03956468
433,0.7470343,0.749388,-0.03426402
436,0.7551107,0.7574393,-0.03956468
438,0.7551107,0.7574393,-0.03956468
440,0.758472,0.760533,-0.03426402
442,0.758472,0.760533,-0.03426402
445,0.7671934,0.7694854,-0.03426402
447,0.7671934,0.7694854,-0.03426402
449,0.7720242,0.7740492,-0.03426402
451,0.7763211,0.7780834,-0.03426402
454,0.7763211,0.7780834,-0.03426402
456,0.7488656,0.7499101,-0.01978234
458,0.7488656,0.7499101,-0.01978234
460,0.7512136,0.7517344,0
463,0.7512136,0.7517344,0
465,0.7527748,0.7532945,0
467,0.7527748,0.7532945,0
470,0.7444103,0.7441474,0
473,0.7367479,0.7356848,0
475,0.7367479,0.7356848,0
477,0.7298098,0.7281993,0
479,0.7298098,0.7281993,0
482,0.6608641,0.659382,0
484,0.6608641,0.659382,0
486,0.6339648,0.6327289,0
488,0.598071,0.5967609,0
490,0.598071,0.5967609,0
493,0.5414024,0.5403171,0
495,0.5414024,0.5403171,0
497,0.5177552,0.5169988,0
499,0.5177552,0.5169988,0
502,0.4973219,0.4965344,0
504,0.4973219,0.4965344,0
506,0.5215207,0.5192646,0
508,0.5297108,0.5263757,0
512,0.5297108,0.5263757,0
514,0.5496522,0.5450047,0.01978234
516,0.5496522,0.5450047,0.01978234
518,0.577091,0.5712977,0.02797646
521,0.577091,0.5712977,0.02797646
523,0.5934729,0.5865081,0.03426402
525,0.5934729,0.5865081,0.03426402
527,0.6061952,0.598725,0.03426402
530,0.6318005,0.6236961,0.03956468
532,0.6318005,0.6236961,0.03956468
534,0.6407191,0.6321102,0.04845664
536,0.6407191,0.6321102,0.04845664
539,0.6407191,0.6321102,0.04845664
541,0.6407191,0.6321102,0.04845664
543,0.64589,0.6370438,0.04845664
545,0.6516207,0.6425489,0.04845664
548,0.6516207,0.6425489,0.04845664
550,0.6558113,0.6464956,0.05233916
552,0.6558113,0.6464956,0.05233916
555,0.6584912,0.649214,0.04845664
557,0.6584912,0.649214,0.04845664
560,0.6623429,0.652521,0.05233916
562,0.6623429,0.652521,0.05233916
564,0.6647022,0.6552143,0.04845664
566,0.6661724,0.6570037,0.05233916
569,0.6661724,0.6570037,0.05233916
571,0.6688108,0.6596788,0.04845664
573,0.6688108,0.6596788,0.04845664
575,0.6702721,0.6608641,0.04845664
578,0.6702721,0.6608641,0.04845664
580,0.6705639,0.661456,0.05233916
582,0.6705639,0.661456,0.05233916
584,0.66998,0.6608641,0.05233916
587,0.6711472,0.6626383,0.04845664
589,0.6711472,0.6626383,0.04845664
591,0.6723125,0.6647022,0.04423466
593,0.6723125,0.6647022,0.04423466
596,0.6693957,0.6617518,0.03956468
599,0.6693957,0.6617518,0.03956468
601,0.667053,0.659382,0.03956468
603,0.6652907,0.6575991,0.03956468
606,0.6652907,0.6575991,0.03956468
608,0.6649964,0.6578966,0.03426402
610,0.6649964,0.6578966,0.03426402
612,0.6661724,0.659382,0.03956468
615,0.6661724,0.659382,0.03956468
617,0.6673463,0.6611602,0.02797646
619,0.6673463,0.6611602,0.02797646
621,0.6661724,0.6599753,0.02797646
623,0.6644077,0.6584912,0.03426402
626,0.6644077,0.6584912,0.03426402
628,0.6623429,0.6573014,0.02797646
630,0.6623429,0.6573014,0.02797646
632,0.6608641,0.6555129,0.01978234
635,0.6608641,0.6555129,0.01978234
637,0.6558113,0.6507192,0.01978234
640,0.6558113,0.6507192,0.01978234
642,0.652221,0.6474031,0.01978234
645,0.6501176,0.6449805,0.01978234
647,0.6501176,0.6449805,0.01978234
649,0.6827098,0.6798376,0.01978234
651,0.6827098,0.6798376,0.01978234
654,0.680413,0.6778198,0
656,0.680413,0.6778198,0
658,0.6772422,0.6752167,0
660,0.6889865,0.687565,0
663,0.6889865,0.687565,0
665,0.6988559,0.6980155,0
667,0.6988559,0.6980155,0
669,0.7203645,0.7200928,0
672,0.7203645,0.7200928,0
674,0.7311491,0.7314168,0
676,0.7311491,0.7314168,0
678,0.7404569,0.7409853,0
681,0.717643,0.717643,0
684,0.717643,0.717643,0
686,0.709416,0.709416,0
688,0.709416,0.709416,0
690,0.7165515,0.7168246,0
693,0.7222635,0.7230757,0
695,0.7316842,0.7324861,-0.01978234
697,0.7391344,0.7401926,-0.02797646
699,0.7391344,0.7401926,-0.02797646
702,0.7525149,0.7540734,-0.02797646
704,0.7525149,0.7540734,-0.02797646
706,0.758472,0.7600183,-0.02797646
708,0.758472,0.7600183,-0.02797646
711,0.7633579,0.7651502,-0.02797646
713,0.7633579,0.7651502,-0.02797646
715,0.7707559,0.7727842,-0.03956468
717,0.7737964,0.7760689,-0.03956468
720,0.7737964,0.7760689,-0.03956468
722,0.7753122,0.7773286,-0.03426402
724,0.7753122,0.7773286,-0.03426402
727,0.7793398,0.7818466,-0.03956468
730,0.7793398,0.7818466,-0.03956468
732,0.7815963,0.7843454,-0.03956468
734,0.7815963,0.7843454,-0.03956468
736,0.7843454,0.7868362,-0.03426402
739,0.7848442,0.7870849,-0.03956468
741,0.7848442,0.7870849,-0.03956468
743,0.7850935,0.7875819,-0.03956468
745,0.7850935,0.7875819,-0.03956468
748,0.7868362,0.7890712,-0.03956468
750,0.7868362,0.7890712,-0.03956468
752,0.7870849,0.7898148,-0.03956468
754,0.7850935,0.7875819,-0.03956468
756,0.7850935,0.7875819,-0.03956468
759,0.7825971,0.7850935,-0.03956468
761,0.7825971,0.7850935,-0.03956468
763,0.7803435,0.783097,-0.03956468
765,0.7803435,0.783097,-0.03956468
769,0.7783349,0.7808449,-0.03956468
771,0.7783349,0.7808449,-0.03956468
773,0.7780834,0.7805943,-0.03426402
775,0.7778319,0.7803435,-0.03956468
778,0.7778319,0.7803435,-0.03956468
780,0.7788376,0.7813459,-0.03956468
782,0.7788376,0.7813459,-0.03956468
784,0.7803435,0.7828471,-0.04423466
787,0.7803435,0.7828471,-0.04423466
789,0.782347,0.7850935,-0.04423466
791,0.782347,0.7850935,-0.04423466
793,0.7840959,0.7868362,-0.04423466
796,0.7863387,0.7885751,-0.03956468
798,0.7863387,0.7885751,-0.03956468
800,0.7868362,0.7890712,-0.03956468
802,0.7868362,0.7890712,-0.03956468
805,0.7885751,0.7908052,-0.03956468
807,0.7885751,0.7908052,-0.03956468
809,0.7917944,0.7940154,-0.03956468
812,0.7920414,0.7942618,-0.03426402
814,0.7920414,0.7942618,-0.03426402
817,0.7930291,0.7950006,-0.03426402
819,0.7932757,0.7957386,-0.03426402
821,0.774302,0.7758168,-0.02797646
823,0.774302,0.7758168,-0.02797646
826,0.7582139,0.7595032,-0.01978234
828,0.7582139,0.7595032,-0.01978234
830,0.7467723,0.7480813,-0.01978234
832,0.7486043,0.749649,-0.01978234
835,0.7486043,0.749649,-0.01978234
837,0.7356848,0.7359507,-0.01978234
839,0.7356848,0.7359507,-0.01978234
841,0.7238871,0.7241574,0
844,0.7238871,0.7241574,0
846,0.7013714,0.7010924,0
848,0.7013714,0.7010924,0
850,0.6909717,0.690405,0
854,0.6789736,0.6781085,0
856,0.6789736,0.6781085,0
858,0.660568,0.6596788,0
860,0.660568,0.6596788,0
863,0.6543178,0.6531205,0
865,0.6543178,0.6531205,0
867,0.6440698,0.6419396,0
869,0.6416347,0.6394964,0
872,0.6416347,0.6394964,0
874,0.6376578,0.6348901,0
876,0.6376578,0.6348901,0
878,0.635814,0.6327289,0
880,0.635814,0.6327289,0
883,0.6318005,0.6293179,0
885,0.6318005,0.6293179,0
887,0.6324196,0.629007,0.01978234
889,0.6318005,0.6286958,0
892,0.6318005,0.6286958,0
894,0.6327289,0.629007,0
897,0.6327289,0.629007,0
899,0.6333472,0.6293179,0
902,0.6333472,0.6293179,0
904,0.6355062,0.6318005,0
906,0.6355062,0.6318005,0
908,0.6373509,0.6339648,0
911,0.6391903,0.6345818,0.01978234
913,0.6391903,0.6345818,0.01978234
915,0.640108,0.6355062,0.01978234
917,0.640108,0.6355062,0.01978234
920,0.6431577,0.6385778,0.01978234
922,0.6431577,0.6385778,0.01978234
924,0.6467983,0.6419396,0.02797646
926,0.6513204,0.646193,0
929,0.6513204,0.646193,0
931,0.6543178,0.6498165,0.01978234
933,0.6543178,0.6498165,0.01978234
935,0.6596788,0.6546168,0.02797646
939,0.6596788,0.6546168,0.02797646
941,0.6617518,0.6567059,0.01978234
943,0.6617518,0.6567059,0.01978234
945,0.6655847,0.6602717,0.01978234
947,0.6673463,0.6623429,0.02797646
950,0.6673463,0.6623429,0.02797646
952,0.6688108,0.6635236,0.01978234
954,0.6688108,0.6635236,0.01978234
956,0.6726035,0.6664661,0.02797646
959,0.6726035,0.6664661,0.02797646
961,0.6795497,0.6737661,0.02797646
963,0.6832828,0.6772422,0.03426402
965,0.6832828,0.6772422,0.03426402
968,0.6858553,0.6798376,0.03426402
970,0.6858553,0.6798376,0.03426402
972,0.6884183,0.6827098,0.03426402
974,0.6884183,0.6827098,0.03426402
977,0.6892704,0.6835691,0.02797646
979,0.6892704,0.6835691,0.02797646
982,0.6864257,0.680413,0.02797646
984,0.6849989,0.6789736,0.03426402
987,0.6849989,0.6789736,0.03426402
989,0.6852845,0.6792617,0.02797646
991,0.6852845,0.6792617,0.02797646
993,0.6852845,0.6795497,0.02797646
996,0.6852845,0.6795497,0.02797646
998,0.6849989,0.6792617,0.03426402
1000,0.6849989,0.6792617,0.03426402
1002,0.6844273,0.6786853,0.02797646
1005,0.6829963,0.6775311,0.03426402
1007,0.6829963,0.6775311,0.03426402
1009,0.680988,0.6752167,0.02797646
1012,0.680988,0.6752167,0.02797646
1014,0.6778198,0.6723125,0.02797646
1016,0.6749268,0.6696879,0.02797646
1019,0.6749268,0.6696879,0.02797646
1021,0.6676395,0.6626383,0.01978234
1024,0.6676395,0.6626383,0.01978234
1027,0.6649964,0.6599753,0.01978234
1029,0.6649964,0.6599753,0.01978234
1031,0.6954879,0.6923862,0
1034,0.7069291,0.7049889,0
1036,0.7069291,0.7049889,0
1038,0.6988559,0.6968932,0
1041,0.6988559,0.6968932,0
1043,0.6963314,0.6946434,0
1045,0.7096917,0.708588,0
1048,0.7096917,0.708588,0
1050,0.7306137,0.7306137,0
1052,0.7306137,0.7306137,0
1054,0.7401926,0.7407211,0
1057,0.7401926,0.7407211,0
1059,0.7486043,0.749388,-0.01978234
1061,0.7641266,0.7651502,-0.01978234
1064,0.7641266,0.7651502,-0.01978234
1067,0.7712635,0.7727842,-0.01978234
1069,0.7712635,0.7727842,-0.01978234
1072,0.7813459,0.783097,-0.01978234
1074,0.7848442,0.7865875,-0.02797646
1076,0.7848442,0.7865875,-0.02797646
1079,0.7898148,0.7920414,-0.03426402
1081,0.7898148,0.7920414,-0.03426402
1083,0.7917944,0.7942618,-0.03426402
1086,0.7917944,0.7942618,-0.03426402
1088,0.7912999,0.7937689,-0.03426402
1090,0.7917944,0.7940154,-0.03956468
1093,0.7917944,0.7940154,-0.03956468
1095,0.7910526,0.7940154,-0.04423466
1097,0.7910526,0.7940154,-0.04423466
1100,0.7910526,0.7940154,-0.03956468
1102,0.7910526,0.7940154,-0.03956468
1104,0.7893192,0.7920414,-0.03956468
1107,0.7880787,0.7910526,-0.04423466
1110,0.7880787,0.7910526,-0.04423466
1112,0.7863387,0.7893192,-0.04845664
1115,0.7863387,0.7893192,-0.04845664
1117,0.7858408,0.7888232,-0.04423466
1119,0.7848442,0.7878303,-0.04845664
1122,0.7848442,0.7878303,-0.04845664
1124,0.7838463,0.7865875,-0.04845664
1126,0.7838463,0.7865875,-0.04845664
1129,0.7840959,0.7870849,-0.04845664
1131,0.7840959,0.7870849,-0.04845664
1133,0.7848442,0.7878303,-0.04845664
1136,0.7848442,0.7873334,-0.04845664
1138,0.7848442,0.7873334,-0.04845664
1140,0.7845948,0.7870849,-0.04423466
1142,0.7845948,0.7870849,-0.04423466
1145,0.7848442,0.7875819,-0.04423466
1147,0.7853427,0.7880787,-0.03956468
1149,0.7853427,0.7880787,-0.03956468
1153,0.7863387,0.7888232,-0.04845664
1155,0.7863387,0.7888232,-0.04845664
1157,0.7875819,0.7900625,-0.04423466
1160,0.7875819,0.7900625,-0.04423466
1162,0.7883269,0.7908052,-0.03956468
1164,0.7912999,0.7937689,-0.03956468
1167,0.7912999,0.7937689,-0.03956468
1169,0.7940154,0.7967216,-0.03956468
1171,0.7940154,0.7967216,-0.03956468
1174,0.7962303,0.798684,-0.03426402
1176,0.7981939,0.800886,-0.03426402
1178,0.7981939,0.800886,-0.03426402
1181,0.8003972,0.8025945,-0.02797646
1183,0.8003972,0.8025945,-0.02797646
1185,0.8035691,0.8057577,-0.03426402
1188,0.8035691,0.8057577,-0.03426402
1190,0.8064859,0.8084246,-0.03426402
1192,0.8086666,0.8106001,-0.02797646
1196,0.8086666,0.8106001,-0.02797646
1198,0.7883269,0.7900625,-0.02797646
1200,0.7883269,0.7900625,-0.02797646
1203,0.7727842,0.7737964,-0.01978234
1205,0.7727842,0.7737964,-0.01978234
1207,0.7730374,0.7745547,-0.01978234
1210,0.7735435,0.7748073,-0.01978234
1212,0.7820969,0.7833468,-0.01978234
1214,0.7890712,0.7903101,-0.01978234
1217,0.7890712,0.7903101,-0.01978234
1219,0.7945082,0.7957386,-0.01978234
1221,0.7697397,0.7699938,0
1224,0.7697397,0.7699938,0
1226,0.7602757,0.760533,0
1228,0.7602757,0.760533,0
1230,0.774302,0.7745547,0
1233,0.774302,0.7745547,0
1235,0.7793398,0.7795909,0
1238,0.7659171,0.7659171,0
1241,0.7659171,0.7659171,0
1243,0.7457234,0.7446731,0
1245,0.7457234,0.7446731,0
1248,0.7348864,0.7338206,0
1250,0.7154584,0.7132671,0
1252,0.7154584,0.7132671,0
1255,0.7066523,0.7041557,0
1257,0.7066523,0.7041557,0
1259,0.6988559,0.6960504,0
1262,0.6988559,0.6960504,0
1264,0.6892704,0.6858553,0.01978234
1266,0.6855699,0.6815624,0.01978234
1269,0.6855699,0.6815624,0.01978234
1271,0.6818494,0.6778198,0.01978234
1273,0.6818494,0.6778198,0.01978234
1276,0.6801254,0.6755064,0.01978234
1278,0.6801254,0.6755064,0.01978234
1281,0.6769533,0.6723125,0.01978234
1284,0.6740565,0.6691033,0.01978234
1286,0.6740565,0.6691033,0.01978234
1288,0.6740565,0.6691033,0.01978234
1291,0.6740565,0.6691033,0.01978234
1293,0.6726035,0.6676395,0.02797646
1295,0.6693957,0.6641131,0.03426402
1298,0.6693957,0.6641131,0.03426402
1300,0.6667597,0.6608641,0.02797646
1302,0.6667597,0.6608641,0.02797646
1305,0.6655847,0.659382,0.02797646
1307,0.6655847,0.659382,0.02797646
1309,0.6664661,0.6608641,0.02797646
1312,0.667053,0.6617518,0.01978234
1314,0.667053,0.6617518,0.01978234
1316,0.667053,0.6620474,0.01978234
1318,0.667053,0.6620474,0.01978234
1321,0.6658786,0.6602717,0.02797646
1324,0.6647022,0.659382,0.02797646
1326,0.6647022,0.659382,0.02797646
1329,0.6641131,0.659382,0.02797646
1331,0.6641131,0.659382,0.02797646
1333,0.6641131,0.6590852,0.01978234
1336,0.6638185,0.6587883,0.01978234
1338,0.6635236,0.6587883,0.02797646
1340,0.6629335,0.6578966,0.02797646
1343,0.6629335,0.6578966,0.02797646
1345,0.6638185,0.6590852,0.01978234
1347,0.6638185,0.6590852,0.01978234
1350,0.6641131,0.6596788,0.01978234
1352,0.6626383,0.6584912,0.01978234
1354,0.6626383,0.6584912,0.01978234
1357,0.6611602,0.6573014,0.01978234
1359,0.6611602,0.6573014,0.01978234
1361,0.6602717,0.6564078,0.01978234
1364,0.6602717,0.6564078,0.01978234
1367,0.6590852,0.6552143,0
1369,0.6584912,0.6546168,0.01978234
1372,0.6584912,0.6546168,0.01978234
1374,0.6578966,0.6543178,0.01978234
1376,0.6578966,0.6543178,0.01978234
1379,0.6573014,0.6537194,0.01978234
1381,0.6573014,0.6537194,0.01978234
1383,0.651921,0.6480073,0
1386,0.6516207,0.6483091,0
1388,0.6516207,0.6483091,0
1390,0.652221,0.6489125,0
1393,0.652221,0.6489125,0
1395,0.651921,0.6489125,0
1397,0.6516207,0.6486109,0
1400,0.6516207,0.6486109,0
1402,0.6507192,0.6480073,0
1404,0.6507192,0.6480073,0
1406,0.6501176,0.6474031,0
1410,0.6501176,0.6474031,0
1412,0.6495153,0.6471007,0
1414,0.6452838,0.6428534,0
1417,0.6452838,0.6428534,0
1419,0.6437659,0.6407191,0.01978234
1421,0.6437659,0.6407191,0.01978234
1424,0.6431577,0.6404136,0
1426,0.6658786,0.6644077,0
1428,0.6658786,0.6644077,0
1431,0.6849989,0.6841414,0
1433,0.6849989,0.6841414,0
1435,0.6996954,0.6996954,0
1438,0.6996954,0.6996954,0
1440,0.6994157,0.6988559,0
1442,0.6991359,0.6988559,0
1445,0.6991359,0.6988559,0
1447,0.7244276,0.7244276,-0.01978234
1449,0.7244276,0.7244276,-0.01978234
1453,0.7340872,0.7346201,0
1455,0.7472962,0.7483428,-0.02797646
1457,0.7472962,0.7483428,-0.02797646
1460,0.7527748,0.7540734,-0.01978234
1462,0.7527748,0.7540734,-0.01978234
1464,0.7600183,0.7618184,-0.02797646
1467,0.7600183,0.7618184,-0.02797646
1469,0.7636142,0.7654059,-0.03426402
1471,0.7666831,0.7684676,-0.03956468
1474,0.7666831,0.7684676,-0.03956468
1476,0.7712635,0.7732905,-0.04423466
1478,0.7712635,0.7732905,-0.04423466
1481,0.7730374,0.7750598,-0.04845664
1483,0.7730374,0.7750598,-0.04845664
1485,0.7748073,0.7770769,-0.04845664
1488,0.7778319,0.7803435,-0.04845664
1490,0.7778319,0.7803435,-0.04845664
1492,0.7793398,0.7820969,-0.04845664
1495,0.7793398,0.7820969,-0.04845664
1498,0.7890712,0.7915472,-0.04423466
1500,0.7959845,0.798684,-0.04423466
1502,0.7959845,0.798684,-0.04423466
1505,0.8030819,0.8057577,-0.03956468
1507,0.8030819,0.8057577,-0.03956468
1509,0.814213,0.8163731,-0.04423466
1512,0.814213,0.8163731,-0.04423466
1514,0.8199606,0.8223435,-0.04423466
1516,0.8289794,0.8311011,-0.03426402
1519,0.8289794,0.8311011,-0.03426402
1521,0.8306301,0.8327476,-0.03956468
1523,0.8306301,0.8327476,-0.03956468
1526,0.8336869,0.8355626,-0.02797646
1528,0.8357967,0.8376676,-0.03426402
1530,0.8357967,0.8376676,-0.03426402
1533,0.839068,0.8411642,-0.02797646
1536,0.839068,0.8411642,-0.02797646
1538,0.8064859,0.8076981,-0.01978234
1541,0.8064859,0.8076981,-0.01978234
1543,0.7945082,0.7954926,-0.01978234
1545,0.7818466,0.7825971,-0.01978234
1548,0.7818466,0.7825971,-0.01978234
1550,0.7790887,0.7800927,-0.01978234
1552,0.7790887,0.7800927,-0.01978234
1555,0.741777,0.742568,0
1557,0.741777,0.742568,0
1559,0.7273927,0.7281993,-0.01978234
1562,0.6977351,0.6982958,0
1564,0.6977351,0.6982958,0
1566,0.6708556,0.6711472,0
1569,0.6708556,0.6711472,0
1571,0.6578966,0.6581939,0
1573,0.6373509,0.6376578,0
1575,0.6373509,0.6376578,0
1579,0.6382713,0.6376578,0
1581,0.6382713,0.6376578,0
1583,0.6373509,0.6367366,0
1586,0.6373509,0.6367366,0
1588,0.6391903,0.6382713,0
1590,0.6407191,0.6394964,0
1593,0.6407191,0.6394964,0
1595,0.6428534,0.6416347,0
1597,0.6428534,0.6416347,0
1600,0.6431577,0.6419396,0
1602,0.6474031,0.645587,0
1604,0.6474031,0.645587,0
1607,0.6516207,0.6498165,0
1609,0.6516207,0.6498165,0
1611,0.645587,0.6440698,0
1614,0.645587,0.6440698,0
1616,0.635814,0.6339648,0
1618,0.63025,0.629007,0
1622,0.63025,0.629007,0
1624,0.6211812,0.6202354,0
1626,0.6211812,0.6202354,0
1629,0.6177064,0.6161205,0
1631,0.6103771,0.6084505,0
1633,0.6103771,0.6084505,0
1636,0.6068404,0.605226,0
1638,0.6068404,0.605226,0
1640,0.6042554,0.6026341,0
1643,0.6042554,0.6026341,0
1645,0.6084505,0.6071628,0
1647,0.6132555,0.6113381,0
1650,0.6132555,0.6113381,0
1652,0.6262009,0.6230683,0
1654,0.6262009,0.6230683,0
1657,0.6330382,0.6293179,0
1659,0.6330382,0.6293179,0
1661,0.6480073,0.6431577,0.01978234
1664,0.6608641,0.6549156,0.03426402
1667,0.6608641,0.6549156,0.03426402
1669,0.6649964,0.6587883,0.03426402
1671,0.6649964,0.6587883,0.03426402
1674,0.6775311,0.6708556,0.03426402
1676,0.6815624,0.6749268,0.03956468
1678,0.6815624,0.6749268,0.03956468
1681,0.6895542,0.6815624,0.04845664
1683,0.6895542,0.6815624,0.04845664
1685,0.6915378,0.6835691,0.04845664
1688,0.6915378,0.6835691,0.04845664
1690,0.6946434,0.6858553,0.05233916
1692,0.6946434,0.6855699,0.05233916
1695,0.6946434,0.6855699,0.05233916
1697,0.7024865,0.6926687,0.05934703
1699,0.7024865,0.6926687,0.05934703
1702,0.7049889,0.6946434,0.05934703
1704,0.7116191,0.7008132,0.06255726
1707,0.7116191,0.7008132,0.06255726
1710,0.7132671,0.7024865,0.06255726
1712,0.7132671,0.7024865,0.06255726
1714,0.7157319,0.7047113,0.06255726
1717,0.7157319,0.7047113,0.06255726
1719,0.7170975,0.7052664,0.06852804
1721,0.717643,0.7055438,0.06852804
1724,0.717643,0.7055438,0.06852804
1726,0.7173703,0.7058211,0.0656106
1728,0.7173703,0.7058211,0.0656106
1731,0.7170975,0.7055438,0.0656106
1733,0.7170975,0.7055438,0.0656106
1735,0.7151849,0.7035998,0.06255726
1738,0.7138155,0.7024865,0.0656106
1740,0.7138155,0.7024865,0.0656106
1742,0.711894,0.7010924,0.06255726
1745,0.711894,0.7010924,0.06255726
1747,0.7300779,0.7206361,0.05595291
1750,0.7574393,0.7504317,0.04845664
1752,0.7574393,0.7504317,0.04845664
1755,0.7527748,0.7462481,0.04423466
1757,0.7527748,0.7462481,0.04423466
1759,0.7462481,0.7401926,0.03956468
1762,0.7462481,0.7401926,0.03956468
1764,0.7380747,0.7319516,0.03956468
1766,0.7265852,0.7209076,0.03426402
1769,0.7265852,0.7209076,0.03426402
1771,0.7121689,0.7066523,0.03426402
1773,0.7121689,0.7066523,0.03426402
1776,0.7069291,0.7013714,0.02797646
1778,0.6991359,0.6932335,0.02797646
1780,0.6991359,0.6932335,0.02797646
1783,0.6957693,0.690405,0.03426402
1785,0.6957693,0.690405,0.03426402
1787,0.7107937,0.7060983,0.02797646
1790,0.7107937,0.7060983,0.02797646
1793,0.7252374,0.721179,0.01978234
1795,0.7545922,0.7519946,0
1798,0.7545922,0.7519946,0
1800,0.7815963,0.7795909,0
1802,0.7815963,0.7795909,0
1805,0.7937689,0.7922885,0
1807,0.8134917,0.812529,0
1809,0.8134917,0.812529,0
1812,0.8209146,0.8201992,0
1814,0.8209146,0.8201992,0
1816,0.8334522,0.8329825,0
1819,0.8334522,0.8329825,0
1821,0.8357967,0.8355626,0
1823,0.8406988,0.8402332,0
1826,0.8406988,0.8402332,0
1828,0.8357967,0.8355626,0
1830,0.8357967,0.8355626,0
1833,0.8303944,0.8308656,0
1836,0.8303944,0.8308656,0
1838,0.8180492,0.8187665,0
1840,0.8120472,0.812529,-0.01978234
1843,0.8120472,0.812529,-0.01978234
1845,0.798684,0.7994187,-0.01978234
1847,0.798684,0.7994187,-0.01978234
1850,0.7917944,0.7927822,-0.01978234
1852,0.7808449,0.7818466,-0.01978234
1854,0.7808449,0.7818466,-0.01978234
1857,0.7763211,0.7773286,-0.01978234
1859,0.7763211,0.7773286,-0.01978234
1861,0.7687222,0.7699938,-0.01978234
1864,0.7687222,0.7699938,-0.01978234
1866,0.7628451,0.7646385,-0.01978234
1868,0.7595032,0.7610474,-0.02797646
1871,0.7595032,0.7610474,-0.02797646
1873,0.7564052,0.7582139,0
1875,0.7543329,0.7561465,-0.02797646
1879,0.7530347,0.7545922,-0.02797646
1881,0.7512136,0.7530347,-0.02797646
1883,0.7512136,0.7530347,-0.02797646
1886,0.7574393,0.7587299,0
1888,0.7574393,0.7587299,0
1890,0.7666831,0.7679582,0
1893,0.7666831,0.7679582,0
1895,0.7699938,0.7712635,-0.02797646
1897,0.7803435,0.7815963,0
1900,0.7803435,0.7815963,0
1902,0.7843454,0.7853427,0
1904,0.7843454,0.7853427,0
1907,0.7942618,0.7954926,0
1909,0.7981939,0.798929,-0.01978234
1911,0.7981939,0.798929,-0.01978234
1914,0.8079404,0.8086666,-0.01978234
1916,0.8079404,0.8086666,-0.01978234
1918,0.8158936,0.8163731,0
1922,0.8158936,0.8163731,0
1924,0.8192443,0.8199606,0
1926,0.8240075,0.8242449,0
1928,0.8240075,0.8242449,0
1931,0.8247196,0.8254311,0
1933,0.8247196,0.8254311,0
1935,0.8270888,0.8275619,0
1938,0.8270888,0.8275619,0
1940,0.8275619,0.8280347,0
1942,0.8289794,0.8294513,0
1945,0.8289794,0.8294513,0
1947,0.8197219,0.8204377,0
1949,0.8197219,0.8204377,0
1952,0.8166127,0.8173313,-0.01978234
1954,0.8016186,0.8030819,0
1956,0.8016186,0.8030819,0
1959,0.7967216,0.7977034,-0.01978234
1961,0.7967216,0.7977034,-0.01978234
1964,0.7858408,0.7873334,-0.01978234
1967,0.7858408,0.7873334,-0.01978234
1969,0.7820969,0.7835966,-0.01978234
1971,0.7785863,0.7803435,-0.01978234
1974,0.7785863,0.7803435,-0.01978234
1976,0.7778319,0.7790887,-0.02797646
1978,0.7778319,0.7790887,-0.02797646
1981,0.7790887,0.7803435,-0.02797646
1983,0.7795909,0.7808449,-0.02797646
1985,0.7795909,0.7808449,-0.02797646
1988,0.7795909,0.7808449,-0.02797646
1990,0.7795909,0.7808449,-0.02797646
1992,0.7798419,0.7810954,-0.02797646
1995,0.7798419,0.7810954,-0.02797646
1997,0.7595032,0.760533,-0.01978234
1999,0.729005,0.7295417,-0.01978234
2002,0.729005,0.7295417,-0.01978234
2004,0.7303458,0.7311491,0
2007,0.7303458,0.7311491,0
2010,0.7322189,0.7327532,-0.01978234
2012,0.7322189,0.7327532,-0.01978234
2014,0.7181882,0.7187329,0
2016,0.6966124,0.6966124,0
2019,0.6966124,0.6966124,0
2021,0.680988,0.680988,0
2023,0.680988,0.680988,0
2026,0.6570037,0.6561096,0
2028,0.6655847,0.6647022,0
2030,0.6655847,0.6647022,0
2033,0.6772422,0.6766641,0
2035,0.6772422,0.6766641,0
2037,0.6635236,0.6629335,0
2040,0.6635236,0.6629335,0
2042,0.6578966,0.6573014,0
2044,0.645587,0.6443735,0
2048,0.645587,0.6443735,0
2050,0.6391903,0.6382713,0
2052,0.6391903,0.6382713,0
2055,0.6268256,0.6255757,0
2057,0.6208661,0.6189722,0
2059,0.6208661,0.6189722,0
2062,0.6305605,0.629007,0
2064,0.6305605,0.629007,0
2066,0.6528208,0.651921,0
2069,0.6528208,0.651921,0
2071,0.649214,0.6486109,0
2073,0.6434618,0.6428534,0
2076,0.6434618,0.6428534,0
2078,0.6570037,0.6564078,0
2080,0.6570037,0.6564078,0
2083,0.6766641,0.6763749,0
2085,0.6892704,0.6892704,-0.01978234
2087,0.6892704,0.6892704,-0.01978234
2091,0.7080355,0.7083117,0
2093,0.7080355,0.7083117,0
2095,0.7016503,0.7019292,0
2098,0.7016503,0.7019292,0
2100,0.6906884,0.6906884,0
2102,0.667053,0.6664661,0
2104,0.667053,0.6664661,0
2107,0.6549156,0.6540186,0
2109,0.6549156,0.6540186,0
2111,0.6321102,0.6305605,0
2114,0.6321102,0.6305605,0
2116,0.6132555,0.6110179,0
2118,0.6019843,0.5993783,0
2121,0.6019843,0.5993783,0
2123,0.5928131,0.5821548,0
2125,0.5851721,0.5821548,0
2128,0.6016592,0.5990517,0
2130,0.6262009,0.6240098,0
2132,0.6262009,0.6240098,0
2136,0.6355062,0.633656,0
2138,0.6355062,0.633656,0
2140,0.6293179,0.6268256,0
2143,0.6293179,0.6268256,0
2145,0.6271377,0.6246366,0
2147,0.6097356,0.6071628,0
2150,0.6097356,0.6071628,0
2152,0.6032831,0.6003569,0
2154,0.6032831,0.6003569,0
2157,0.6208661,0.618656,0
2159,0.6379647,0.6367366,0
2161,0.6379647,0.6367366,0
2164,0.6467983,0.646193,0
2166,0.6467983,0.646193,0
2168,0.6623429,0.6617518,0
2171,0.6623429,0.6617518,0
2173,0.6688108,0.6685182,-0.01978234
2176,0.6789736,0.6786853,-0.01978234
2179,0.6789736,0.6786853,-0.01978234
2181,0.6564078,0.6561096,0
2183,0.6564078,0.6561096,0
2185,0.6483091,0.6477052,0
2188,0.6483091,0.6477052,0
2190,0.6507192,0.6501176,0
2192,0.6546168,0.6543178,0
2195,0.6546168,0.6543178,0
2197,0.6620474,0.6623429,0
2199,0.6620474,0.6623429,0
2202,0.6728944,0.6734757,0
2204,0.6789736,0.6795497,0
2206,0.6789736,0.6795497,0
2209,0.6838553,0.6849989,-0.01978234
2211,0.6838553,0.6849989,-0.01978234
2213,0.6912548,0.6929511,-0.02797646
2216,0.6912548,0.6929511,-0.02797646
2219,0.6937978,0.6957693,-0.02797646
2221,0.7013714,0.7038778,-0.02797646
2224,0.7013714,0.7038778,-0.02797646
2226,0.7044336,0.7066523,-0.02797646
2228,0.7044336,0.7066523,-0.02797646
2231,0.7135413,0.7157319,-0.03956468
2233,0.7268545,0.729005,-0.03956468
2235,0.7268545,0.729005,-0.03956468
2238,0.7330202,0.7351527,-0.03426402
2240,0.7330202,0.7351527,-0.03426402
2242,0.7378095,0.7401926,-0.03956468
2245,0.7378095,0.7401926,-0.03956468
2247,0.7551107,0.7576976,-0.03956468
2249,0.7613045,0.7638705,-0.03956468
2252,0.7613045,0.7638705,-0.03956468
2254,0.7702479,0.772531,-0.03956468
2256,0.7702479,0.772531,-0.03956468
2259,0.7732905,0.7755645,-0.04423466
2262,0.7748073,0.7773286,-0.04845664
2264,0.7748073,0.7773286,-0.04845664
2267,0.776825,0.7790887,-0.04845664
2269,0.776825,0.7790887,-0.04845664
2271,0.7770769,0.7800927,-0.04845664
2273,0.7770769,0.7800927,-0.04845664
2276,0.7803435,0.783097,-0.05595291
2278,0.7828471,0.7855918,-0.05233916
2280,0.7828471,0.7855918,-0.05233916
2283,0.7845948,0.7875819,-0.05595291
2285,0.7845948,0.7875819,-0.05595291
2287,0.7855918,0.7880787,-0.05934703
2290,0.7855918,0.7880787,-0.05934703
2292,0.7845948,0.7875819,-0.05934703
2294,0.7838463,0.7865875,-0.06255726
2297,0.7838463,0.7865875,-0.06255726
2299,0.7825971,0.7855918,-0.06255726
2301,0.7825971,0.7855918,-0.06255726
2305,0.7845948,0.7875819,-0.0656106
2307,0.7868362,0.7898148,-0.0656106
2309,0.7868362,0.7898148,-0.0656106
2312,0.7858408,0.7890712,-0.06852804
2314,0.7858408,0.7890712,-0.06852804
2316,0.7848442,0.7878303,-0.06852804
2319,0.7848442,0.7878303,-0.06852804
2321,0.7835966,0.7865875,-0.06852804
2323,0.7825971,0.7858408,-0.07132626
2326,0.7825971,0.7858408,-0.07132626
2328,0.7813459,0.7845948,-0.06852804
2330,0.7813459,0.7845948,-0.06852804
2333,0.7808449,0.7838463,-0.06852804
2335,0.7795909,0.7825971,-0.06852804
2337,0.7795909,0.7825971,-0.06852804
2340,0.7790887,0.7820969,-0.07132626
2342,0.7790887,0.7820969,-0.07132626
2344,0.7785863,0.7818466,-0.06852804
2348,0.7785863,0.7818466,-0.06852804
2350,0.7790887,0.7818466,-0.07132626
2352,0.7589878,0.7618184,-0.06852804
2355,0.7589878,0.7618184,-0.06852804
2357,0.7281993,0.7308815,-0.06255726
2359,0.7281993,0.7308815,-0.06255726
2361,0.7295417,0.7324861,-0.06255726
2364,0.7300779,0.733287,-0.06255726
2366,0.7300779,0.733287,-0.06255726
2368,0.7346201,0.7378095,-0.06255726
2371,0.7346201,0.7378095,-0.06255726
2373,0.7380747,0.7409853,-0.0656106
2375,0.7380747,0.7409853,-0.0656106
2378,0.7268545,0.7298098,-0.06255726
2380,0.7149112,0.7181882,-0.06255726
2382,0.7149112,0.7181882,-0.06255726
2385,0.7049889,0.7080355,-0.05934703
2387,0.7049889,0.7080355,-0.05934703
2390,0.7105184,0.7135413,-0.05595291
2393,0.7105184,0.7135413,-0.05595291
2395,0.7024865,0.7052664,-0.05595291
2397,0.6923862,0.694925,-0.05595291
2400,0.6923862,0.694925,-0.05595291
2402,0.6829963,0.6858553,-0.05233916
2404,0.6829963,0.6858553,-0.05233916
2407,0.6726035,0.6752167,-0.05233916
2409,0.6617518,0.6638185,-0.04423466
2411,0.6617518,0.6638185,-0.04423466
2414,0.659382,0.661456,-0.03956468
2416,0.659382,0.661456,-0.03956468
2418,0.6570037,0.6590852,-0.03426402
2421,0.6570037,0.6590852,-0.03426402
2423,0.6549156,0.6564078,-0.03426402
2425,0.65342,0.6552143,-0.03426402
2428,0.65342,0.6552143,-0.03426402
2430,0.6531205,0.6543178,-0.01978234
2433,0.6531205,0.6543178,-0.01978234
2436,0.652221,0.6543178,-0.01978234
2438,0.6528208,0.6540186,-0.01978234
2440,0.6528208,0.6540186,-0.01978234
2443,0.6504185,0.6510199,-0.02797646
2445,0.6504185,0.6510199,-0.02797646
2447,0.6483091,0.649214,0
2449,0.6483091,0.649214,0
2452,0.6428534,0.6434618,0
2454,0.6391903,0.640108,-0.02797646
2456,0.6391903,0.640108,-0.02797646
2459,0.6361217,0.6370438,0
2461,0.6361217,0.6370438,0
2463,0.6311808,0.6321102,-0.01978234
2466,0.6311808,0.6321102,-0.01978234
2468,0.6221254,0.6230683,-0.01978234
2470,0.615485,0.616438,-0.01978234
2473,0.615485,0.616438,-0.01978234
2476,0.6097356,0.6106976,-0.02797646
2478,0.6097356,0.6106976,-0.02797646
2481,0.5990517,0.6010084,-0.01978234
2483,0.5951191,0.5964329,-0.03426402
2485,0.5951191,0.5964329,-0.03426402
2488,0.5951191,0.5967609,-0.03426402
2490,0.5951191,0.5967609,-0.03426402
2492,0.5951191,0.5967609,-0.03426402
2495,0.5951191,0.5967609,-0.03426402
2497,0.5957764,0.5974163,-0.02797646
2499,0.5964329,0.598725,-0.02797646
2502,0.5964329,0.598725,-0.02797646
2504,0.5964329,0.598725,-0.03956468
2506,0.5964329,0.598725,-0.03956468
2509,0.5961047,0.5983981,-0.03956468
2511,0.6006827,0.6032831,-0.03956468
2513,0.6006827,0.6032831,-0.03956468
2516,0.6084505,0.6100564,-0.03426402
2519,0.6084505,0.6100564,-0.03426402
2521,0.6145305,0.6170725,-0.03956468
2524,0.6145305,0.6170725,-0.03956468
2526,0.6240098,0.6265134,-0.03956468
2528,0.6486109,0.6510199,-0.04423466
2531,0.6486109,0.6510199,-0.04423466
2533,0.6841414,0.6869956,-0.04845664
2535,0.6841414,0.6869956,-0.04845664
2537,0.6812752,0.6841414,-0.05233916
2540,0.6769533,0.6795497,-0.05233916
2542,0.6769533,0.6795497,-0.05233916
2544,0.6855699,0.6884183,-0.05595291
2547,0.6855699,0.6884183,-0.05595291
2549,0.6988559,0.7016503,-0.06255726
2551,0.6988559,0.7016503,-0.06255726
2554,0.6884183,0.6915378,-0.06255726
2556,0.6726035,0.675796,-0.06255726
2558,0.6726035,0.675796,-0.06255726
2562,0.6781085,0.680988,-0.0656106
2564,0.6781085,0.680988,-0.0656106
2566,0.6861406,0.6889865,-0.07132626
2569,0.6861406,0.6889865,-0.07132626
2571,0.7002546,0.7033216,-0.07661668
2573,0.7052664,0.7083117,-0.07912937
2576,0.7052664,0.7083117,-0.07912937
2578,0.7154584,0.7184606,-0.08156469
2580,0.7154584,0.7184606,-0.08156469
2583,0.7203645,0.7236168,-0.08392937
2585,0.7273927,0.7306137,-0.08622923
2587,0.7273927,0.7306137,-0.08622923
2590,0.7319516,0.7351527,-0.08846933
2592,0.7319516,0.7351527,-0.08846933
2594,0.7327532,0.7356848,-0.08846933
2597,0.7327532,0.7356848,-0.08846933
2599,0.7335538,0.7367479,-0.09065409
2601,0.7351527,0.7380747,-0.09065409
2605,0.7351527,0.7380747,-0.09065409
2607,0.7367479,0.7401926,-0.09065409
2609,0.7367479,0.7401926,-0.09065409
2612,0.7378095,0.7407211,-0.09278741
2614,0.6815624,0.6849989,-0.08846933
2616,0.6815624,0.6849989,-0.08846933
2619,0.6602717,0.6635236,-0.09065409
2621,0.6602717,0.6635236,-0.09065409
2623,0.6564078,0.6596788,-0.09278741
2625,0.6564078,0.6596788,-0.09278741
2628,0.6652907,0.6682253,-0.09278741
2630,0.6731851,0.6760855,-0.09487279
2632,0.6731851,0.6760855,-0.09487279
2635,0.6688108,0.6717301,-0.09278741
2637,0.6688108,0.6717301,-0.09278741
2639,0.6596788,0.6626383,-0.09065409
2642,0.6596788,0.6626383,-0.09065409
2644,0.6510199,0.6537194,-0.09278741
2647,0.6498165,0.652521,-0.09487279
2650,0.6498165,0.652521,-0.09487279
2652,0.6467983,0.6501176,-0.09691329
2654,0.6467983,0.6501176,-0.09691329
2657,0.6364292,0.6391903,-0.09487279
2659,0.6192883,0.6218109,-0.09278741
2661,0.6192883,0.6218109,-0.09278741
2664,0.5875081,0.5908293,-0.09487279
2666,0.5875081,0.5908293,-0.09487279
2668,0.5753932,0.5784457,-0.09487279
2671,0.5753932,0.5784457,-0.09487279
2673,0.5432066,0.5464389,-0.09278741
2675,0.530449,0.533392,-0.09278741
2678,0.530449,0.533392,-0.09278741
2680,0.5192646,0.5218958,-0.09278741
2682,0.5192646,0.5218958,-0.09278741
2685,0.5177552,0.5207698,-0.09487279
2688,0.5237671,0.5267473,-0.09487279
2690,0.5237671,0.5267473,-0.09487279
2693,0.5315546,0.5341251,-0.09891172
2695,0.5315546,0.5341251,-0.09891172
2697,0.5222706,0.5252593,-0.09691329
2700,0.5222706,0.5252593,-0.09691329
2702,0.5074486,0.5105241,-0.09487279
2704,0.5185105,0.5211454,-0.09487279
2707,0.5185105,0.5211454,-0.09487279
2709,0.5185105,0.5211454,-0.09487279
2711,0.5185105,0.5211454,-0.09487279
2713,0.5147229,0.5177552,-0.09278741
2716,0.5112901,0.5135812,-0.09065409
2718,0.5112901,0.5135812,-0.09065409
2720,0.5078341,0.5105241,-0.09065409
2723,0.5226451,0.5256317,-0.09065409
2725,0.5348573,0.5374122,-0.09065409
2727,0.5348573,0.5374122,-0.09065409
2731,0.569239,0.5719823,-0.09278741
2733,0.5814822,0.5841681,-0.09278741
2735,0.5814822,0.5841681,-0.09278741
2738,0.589503,0.5928131,-0.08622923
2740,0.589503,0.5928131,-0.08622923
2742,0.5885065,0.5914913,-0.08156469
2745,0.5885065,0.5914913,-0.08156469
2747,0.6233823,0.6262009,-0.07132626
2749,0.6361217,0.6394964,-0.07132626
2752,0.6361217,0.6394964,-0.07132626
2754,0.6327289,0.6355062,-0.05934703
2756,0.6327289,0.6355062,-0.05934703
2759,0.6314908,0.6342734,-0.05595291
2761,0.6277614,0.6299395,-0.05233916
2763,0.6277614,0.6299395,-0.05233916
2766,0.6240098,0.6262009,-0.04423466
2768,0.6240098,0.6262009,-0.04423466
2770,0.6221254,0.6240098,-0.04423466
2774,0.6221254,0.6240098,-0.04423466
2776,0.6192883,0.6211812,-0.03426402
2778,0.616438,0.6183397,-0.03426402
2781,0.616438,0.6183397,-0.03426402
2783,0.6129363,0.6145305,-0.03426402
2785,0.6129363,0.6145305,-0.03426402
2788,0.6119779,0.6132555,-0.03426402
2790,0.6106976,0.6119779,-0.02797646
2792,0.6106976,0.6119779,-0.02797646
2794,0.6110179,0.6122975,-0.02797646
2797,0.6110179,0.6122975,-0.02797646
2799,0.6116581,0.6129363,-0.01978234
2801,0.6116581,0.6129363,-0.01978234
2804,0.6122975,0.6132555,-0.02797646
2806,0.6507192,0.652221,-0.02797646
2808,0.6507192,0.652221,-0.02797646
2811,0.6861406,0.6884183,-0.03426402
2813,0.6861406,0.6884183,-0.03426402
2816,0.7038778,0.7060983,-0.03956468
2819,0.7132671,0.7154584,-0.04423466
2821,0.7132671,0.7154584,-0.04423466
2823,0.7088641,0.7113441,-0.03956468
2826,0.7088641,0.7113441,-0.03956468
2828,0.7162784,0.7187329,-0.03956468
2830,0.7162784,0.7187329,-0.03956468
2833,0.733287,0.7354187,-0.04423466
2835,0.7457234,0.7480813,-0.04423466
2837,0.7457234,0.7480813,-0.04423466
2840,0.7651502,0.7674484,-0.04845664
2842,0.7651502,0.7674484,-0.04845664
2844,0.7727842,0.7753122,-0.04845664
2847,0.7727842,0.7753122,-0.04845664
2849,0.7888232,0.7917944,-0.05233916
2851,0.7952467,0.7981939,-0.05233916
2854,0.7952467,0.7981939,-0.05233916
2856,0.8086666,0.811324,-0.05595291
2859,0.8086666,0.811324,-0.05595291
2862,0.814213,0.8166127,-0.05934703
2864,0.82377,0.8263788,-0.05595291
2866,0.82377,0.8263788,-0.05595291
2869,0.8277984,0.8306301,-0.05595291
2871,0.8277984,0.8306301,-0.05595291
2873,0.8332174,0.8360308,-0.05934703
2876,0.8332174,0.8360308,-0.05934703
2878,0.8325126,0.8353283,-0.05934703
2880,0.8322775,0.835094,-0.05934703
2882,0.8322775,0.835094,-0.05934703
2885,0.8320423,0.8348597,-0.05934703
2887,0.8320423,0.8348597,-0.05934703
2889,0.8318071,0.8346253,-0.06255726
2892,0.8327476,0.8355626,-0.05934703
2894,0.8327476,0.8355626,-0.05934703
2896,0.8315719,0.8343908,-0.0656106
2899,0.8315719,0.8343908,-0.0656106
2902,0.8306301,0.8336869,-0.0656106
2904,0.8306301,0.8336869,-0.0656106
2907,0.8277984,0.8311011,-0.0656106
2909,0.8275619,0.8303944,-0.0656106
2911,0.8275619,0.8303944,-0.0656106
2914,0.825194,0.8285072,-0.06852804
2916,0.825194,0.8285072,-0.06852804
2918,0.8247196,0.8277984,-0.0656106
2921,0.8247196,0.8277984,-0.0656106
2923,0.8247196,0.8277984,-0.0656106
2925,0.826142,0.8289794,-0.0656106
2928,0.826142,0.8289794,-0.0656106
2930,0.8263788,0.8296872,-0.0656106
2932,0.8263788,0.8296872,-0.0656106
2935,0.828271,0.8313365,-0.06255726
2937,0.8280347,0.8308656,-0.06255726
2939,0.8280347,0.8308656,-0.06255726
2942,0.8285072,0.8311011,-0.05934703
2945,0.8285072,0.8311011,-0.05934703
2947,0.8320423,0.8346253,-0.06255726
2950,0.8320423,0.8346253,-0.06255726
2952,0.8332174,0.8364988,-0.05934703
2954,0.7999081,0.8028382,-0.05233916
2957,0.7999081,0.8028382,-0.05233916
2959,0.7875819,0.7903101,-0.05233916
2961,0.7875819,0.7903101,-0.05233916
2964,0.7530347,0.7553698,-0.03956468
2966,0.7399282,0.7423044,-0.03956468
2968,0.7399282,0.7423044,-0.03956468
2970,0.7184606,0.7203645,-0.03426402
2973,0.7184606,0.7203645,-0.03426402
2975,0.7030433,0.7047113,-0.02797646
2977,0.7030433,0.7047113,-0.02797646
2980,0.6977351,0.6991359,-0.02797646
2982,0.6889865,0.6901216,-0.01978234
2984,0.6889865,0.6901216,-0.01978234
2988,0.6858553,0.6869956,-0.01978234
2990,0.6858553,0.6869956,-0.01978234
2992,0.680413,0.6812752,-0.01978234
2995,0.6807005,0.6812752,-0.01978234
2997,0.6807005,0.6812752,-0.01978234
2999,0.6795497,0.6807005,-0.01978234
3002,0.6795497,0.6807005,-0.01978234
3004,0.6812752,0.6824232,-0.01978234
3006,0.6812752,0.6824232,-0.01978234
3009,0.6827098,0.6847132,0
3011,0.6849989,0.6867107,-0.02797646
3013,0.6849989,0.6867107,-0.02797646
3016,0.6852845,0.6869956,-0.02797646
3018,0.6852845,0.6869956,-0.02797646
3020,0.6852845,0.6864257,0
3023,0.6852845,0.6864257,0
3025,0.6847132,0.6861406,0
3027,0.6847132,0.6864257,0
3031,0.6847132,0.6864257,0
3033,0.6841414,0.6858553,0
3035,0.6841414,0.6858553,0
3038,0.6838553,0.6852845,0
3040,0.6835691,0.6852845,0
3042,0.6835691,0.6852845,0
3045,0.6827098,0.6841414,0
3047,0.6827098,0.6841414,0
3049,0.6821364,0.6835691,-0.02797646
3052,0.6821364,0.6835691,-0.02797646
3054,0.6815624,0.6829963,0
3056,0.6812752,0.6829963,-0.02797646
3058,0.6812752,0.6829963,-0.02797646
3061,0.680413,0.6824232,-0.02797646
3063,0.680413,0.6824232,-0.02797646
3065,0.680413,0.6818494,0
3068,0.6798376,0.6821364,-0.02797646
3070,0.6798376,0.6821364,-0.02797646
3073,0.6795497,0.6815624,0
3076,0.6795497,0.6815624,0
3078,0.6795497,0.6815624,-0.01978234
3080,0.6795497,0.6815624,-0.01978234
3083,0.6789736,0.680988,-0.02797646
3085,0.6991359,0.7013714,-0.03426402
3087,0.6991359,0.7013714,-0.03426402
3090,0.729005,0.7316842,-0.04423466
3092,0.729005,0.7316842,-0.04423466
3094,0.7401926,0.7430948,-0.03956468
3097,0.7388696,0.7415132,-0.04423466
3099,0.7375443,0.7401926,-0.03956468
3101,0.7512136,0.7540734,-0.04423466
3104,0.7512136,0.7540734,-0.04423466
3106,0.7631016,0.7659171,-0.04423466
3108,0.7631016,0.7659171,-0.04423466
3111,0.7677034,0.7702479,-0.04845664
3113,0.7633579,0.7659171,-0.04845664
3116,0.7633579,0.7659171,-0.04845664
3119,0.7697397,0.772531,-0.04845664
3121,0.7697397,0.772531,-0.04845664
3123,0.7780834,0.7808449,-0.04845664
3126,0.7780834,0.7808449,-0.04845664
3128,0.7957386,0.7981939,-0.05233916
3130,0.8115651,0.814213,-0.05233916
3133,0.8115651,0.814213,-0.05233916
3135,0.8175707,0.8201992,-0.05233916
3137,0.8175707,0.8201992,-0.05233916
3140,0.82377,0.8263788,-0.05595291
3142,0.8336869,0.8364988,-0.05595291
3144,0.8336869,0.8364988,-0.05595291
3146,0.8411642,0.844183,-0.05595291
3149,0.8411642,0.844183,-0.05595291
3151,0.844183,0.8469599,-0.05595291
3153,0.844183,0.8469599,-0.05595291
3156,0.8485757,0.8520276,-0.05934703
3159,0.8515682,0.8545501,-0.06255726
3161,0.8515682,0.8545501,-0.06255726
3164,0.8520276,0.8550079,-0.05934703
3166,0.8520276,0.8550079,-0.05934703
3168,0.8524867,0.8552368,-0.05934703
3171,0.8524867,0.8552368,-0.06255726
3173,0.8524867,0.8552368,-0.06255726
3175,0.8524867,0.8559229,-0.06255726
3178,0.8524867,0.8559229,-0.06255726
3180,0.8538629,0.8566085,-0.06255726
3182,0.8538629,0.8566085,-0.06255726
3185,0.8554656,0.8586619,-0.06255726
3187,0.8568369,0.8600281,-0.05934703
3189,0.8568369,0.8600281,-0.05934703
3192,0.8575217,0.8607104,-0.05934703
3194,0.8575217,0.8607104,-0.05934703
3196,0.8607104,0.8634343,-0.06255726
3200,0.8607104,0.8634343,-0.06255726
3202,0.8618464,0.8645667,-0.06255726
3204,0.8285072,0.8313365,-0.05233916
3207,0.8285072,0.8313365,-0.05233916
3209,0.8062432,0.8089085,-0.04845664
3211,0.8062432,0.8089085,-0.04845664
3214,0.7910526,0.7935224,-0.04423466
3216,0.7679582,0.7699938,-0.03956468
3218,0.7679582,0.7699938,-0.03956468
3221,0.7438844,0.7457234,-0.02797646
3223,0.7438844,0.7457234,-0.02797646
3225,0.7348864,0.7364823,-0.02797646
3228,0.7348864,0.7364823,-0.02797646
3230,0.7195491,0.721179,-0.02797646
3232,0.7132671,0.7149112,-0.02797646
3234,0.7132671,0.7149112,-0.02797646
3237,0.7041557,0.7052664,-0.02797646
3239,0.7041557,0.7052664,-0.02797646
3241,0.7005339,0.7016503,-0.01978234
3245,0.7151849,0.7165515,-0.02797646
3247,0.7151849,0.7165515,-0.02797646
3249,0.741777,0.7438844,-0.03426402
3252,0.741777,0.7438844,-0.03426402
3254,0.7383398,0.7401926,-0.03426402
3256,0.7383398,0.7401926,-0.03426402
3259,0.7327532,0.7348864,-0.03426402
3261,0.7246976,0.7265852,-0.03426402
3263,0.7246976,0.7265852,-0.03426402
3266,0.7127182,0.7143636,-0.03426402
3268,0.7127182,0.7143636,-0.03426402
3270,0.7005339,0.7027649,-0.03426402
3273,0.6946434,0.6960504,-0.03426402
3275,0.6946434,0.6960504,-0.03426402
3277,0.6849989,0.6867107,-0.02797646
3280,0.6849989,0.6867107,-0.02797646
3282,0.6815624,0.6829963,-0.02797646
3284,0.6815624,0.6829963,-0.02797646
3288,0.680988,0.6824232,-0.03426402
3290,0.6827098,0.6847132,-0.01978234
3292,0.6827098,0.6847132,-0.01978234
3295,0.6855699,0.6872803,-0.02797646
3297,0.6855699,0.6872803,-0.02797646
3299,0.6872803,0.6889865,-0.02797646
3302,0.6872803,0.6889865,-0.02797646
3304,0.6889865,0.6898379,-0.03426402
3306,0.6898379,0.6915378,-0.02797646
3309,0.6898379,0.6915378,-0.02797646
3311,0.6906884,0.6918207,-0.02797646
3313,0.6906884,0.6918207,-0.02797646
3316,0.6926687,0.6946434,-0.02797646
3318,0.6957693,0.697174,-0.02797646
3320,0.6957693,0.697174,-0.02797646
3322,0.697174,0.6985759,-0.02797646
3325,0.697174,0.6985759,-0.02797646
3328,0.6980155,0.699975,-0.02797646
3330,0.6980155,0.699975,-0.02797646
3333,0.6977351,0.699975,-0.03426402
3335,0.6960504,0.6985759,-0.02797646
3337,0.6960504,0.6985759,-0.02797646
3340,0.6946434,0.6963314,-0.03956468
3342,0.6946434,0.6963314,-0.03956468
3344,0.6946434,0.6963314,-0.03956468
3347,0.694925,0.697174,-0.03956468
3349,0.694925,0.697174,-0.03956468
3351,0.694925,0.697174,-0.03956468
3354,0.694925,0.697174,-0.03956468
3356,0.6954879,0.6980155,-0.02797646
3358,0.6954879,0.6980155,-0.02797646
3361,0.6957693,0.6982958,-0.03426402
3363,0.6937978,0.6960504,-0.03426402
3365,0.6937978,0.6960504,-0.03426402
3368,0.6929511,0.6946434,-0.03426402
3371,0.6929511,0.6946434,-0.03426402
3373,0.690405,0.6926687,-0.04423466
3376,0.690405,0.6926687,-0.04423466
3378,0.6889865,0.6909717,-0.03956468
3380,0.6869956,0.6887025,-0.03956468
3383,0.6869956,0.6887025,-0.03956468
3385,0.6835691,0.6858553,-0.03956468
3387,0.6835691,0.6858553,-0.03956468
3390,0.6824232,0.6844273,-0.03956468
3392,0.680988,0.6829963,-0.03956468
3394,0.680988,0.6829963,-0.03956468
3397,0.6795497,0.6818494,-0.03956468
3399,0.6795497,0.6818494,-0.03956468
3401,0.6795497,0.6818494,-0.03956468
3403,0.6795497,0.6818494,-0.03956468
3406,0.7173703,0.7200928,-0.04845664
3408,0.7316842,0.7343537,-0.05233916
3410,0.7316842,0.7343537,-0.05233916
3414,0.7324861,0.7351527,-0.05233916
3416,0.7324861,0.7351527,-0.05233916
3418,0.7491269,0.7517344,-0.05595291
3421,0.762332,0.7651502,-0.05934703
3423,0.762332,0.7651502,-0.05934703
3425,0.7833468,0.7865875,-0.06255726
3428,0.7833468,0.7865875,-0.06255726
3430,0.7954926,0.798439,-0.06255726
3432,0.7954926,0.798439,-0.06255726
3435,0.8146936,0.8175707,-0.07132626
3437,0.8301588,0.8329825,-0.07132626
3439,0.8301588,0.8329825,-0.07132626
3442,0.8362648,0.8395343,-0.07401875
3444,0.8362648,0.8395343,-0.07401875
3446,0.8462666,0.8490367,-0.07401875
3449,0.8543211,0.8568369,-0.07661668
3451,0.8543211,0.8568369,-0.07661668
3453,0.8572935,0.8604831,-0.07661668
3457,0.8572935,0.8604831,-0.07661668
3459,0.8634343,0.8666012,-0.07661668
3461,0.8634343,0.8666012,-0.07661668
3464,0.8625273,0.8654715,-0.07912937
3466,0.8623004,0.8652454,-0.08156469
3468,0.8623004,0.8652454,-0.08156469
3471,0.8625273,0.8656976,-0.08392937
3473,0.8625273,0.8656976,-0.08392937
3475,0.8641139,0.8672784,-0.08156469
3478,0.8641139,0.8672784,-0.08156469
3480,0.8632076,0.8666012,-0.08156469
3482,0.8638874,0.866827,-0.08392937
3485,0.8638874,0.866827,-0.08392937
3487,0.8534044,0.8561515,-0.08392937
3489,0.8534044,0.8561515,-0.08392937
3491,0.8476528,0.8508785,-0.08622923
3494,0.8448781,0.8476528,-0.08392937
3496,0.8448781,0.8476528,-0.08392937
3499,0.8411642,0.8444148,-0.08392937
3502,0.8411642,0.8444148,-0.08392937
3504,0.8395343,0.842791,-0.08622923
3506,0.8395343,0.842791,-0.08622923
3509,0.8381346,0.8411642,-0.08846933
3511,0.8400003,0.842791,-0.08846933
3513,0.8400003,0.842791,-0.08846933
3516,0.8432553,0.8462666,-0.08846933
3518,0.8432553,0.8462666,-0.08846933
3520,0.848345,0.8513383,-0.08622923
3523,0.8508785,0.8538629,-0.08392937
3525,0.8508785,0.8538629,-0.08392937
3527,0.8485757,0.8517979,-0.08156469
3530,0.8485757,0.8517979,-0.08156469
3532,0.848345,0.8515682,-0.08156469
3534,0.848345,0.8515682,-0.08156469
3537,0.8474219,0.8504184,-0.08156469
3539,0.8464977,0.8497278,-0.08156469
3542,0.8464977,0.8497278,-0.08156469
3545,0.8485757,0.8520276,-0.07912937
3547,0.8485757,0.8520276,-0.07912937
3549,0.8511084,0.8545501,-0.07912937
3552,0.8552368,0.858434,-0.07912937
3554,0.8552368,0.858434,-0.07912937
3556,0.8586619,0.8623004,-0.07912937
3559,0.8586619,0.8623004,-0.07912937
3561,0.8616194,0.8650193,-0.07912937
3563,0.8616194,0.8650193,-0.07912937
3566,0.8666012,0.8693066,-0.08156469
3568,0.867955,0.8713301,-0.07912937
3570,0.867955,0.8713301,-0.07912937
3573,0.8726766,0.8755867,-0.08156469
3575,0.8726766,0.8755867,-0.08156469
3577,0.8744686,0.8775957,-0.08156469
3579,0.8744686,0.8775957,-0.08156469
3582,0.8787099,0.8813781,-0.08622923
3585,0.8816,0.884702,-0.08846933
3587,0.8816,0.884702,-0.08846933
3590,0.8831524,0.8862489,-0.08846933
3592,0.8831524,0.8862489,-0.08846933
3594,0.8654715,0.8684058,-0.09065409
3597,0.8367326,0.8397673,-0.08622923
3599,0.8367326,0.8397673,-0.08622923
3601,0.8259051,0.8289794,-0.08622923
3604,0.8259051,0.8289794,-0.08622923
3606,0.8270888,0.829923,-0.08846933
3608,0.8270888,0.829923,-0.08846933
3611,0.8268523,0.829923,-0.09278741
3613,0.7981939,0.8013745,-0.09278741
3615,0.7981939,0.8013745,-0.09278741
3618,0.7868362,0.7898148,-0.09065409
3620,0.7868362,0.7898148,-0.09065409
3622,0.7582139,0.7610474,-0.09278741
3625,0.7465102,0.749649,-0.09487279
3628,0.7465102,0.749649,-0.09487279
3630,0.7206361,0.7236168,-0.1008706
3633,0.7206361,0.7236168,-0.1008706
3635,0.7102429,0.7132671,-0.1008706
3637,0.7102429,0.7132671,-0.1008706
3640,0.6778198,0.680413,-0.1083524
3642,0.6649964,0.6673463,-0.1083524
3644,0.6649964,0.6673463,-0.1083524
3647,0.6003569,0.6029587,-0.1065312
3649,0.6003569,0.6029587,-0.1065312
3651,0.5453635,0.5478694,-0.1046783
3654,0.5453635,0.5478694,-0.1046783
3656,0.5192646,0.5222706,-0.1046783
3658,0.4768338,0.4796977,-0.1027921
3661,0.4768338,0.4796977,-0.1027921
3663,0.4618246,0.4639383,-0.1203313
3665,0.4618246,0.4639383,-0.1203313
3667,0.454995,0.456712,-0.1251145
3671,0.4401304,0.4405747,-0.1341704
3673,0.4261257,0.4261257,-0.1384764
3675,0.414487,0.4130683,-0.1440177
3678,0.414487,0.4130683,-0.1440177
3680,0.3769049,0.3722032,-0.1631294
3682,0.3769049,0.3722032,-0.1631294
3685,0.3615361,0.3544303,-0.1713202
3687,0.3304307,0.3127867,-0.199792
3689,0.3304307,0.3127867,-0.199792
3692,0.3177519,0.2947506,-0.2102893
3694,0.3177519,0.2947506,-0.2102893
3696,0.2954137,0.2517883,-0.2430897
3699,0.2873554,0.2332305,-0.2564087
3701,0.2873554,0.2332305,-0.2564087
3703,0.2661444,0.14537,-0.3064671
3706,0.2661444,0.14537,-0.3064671
3708,0.268341,0.1119058,-0.3256589
3710,0.268341,0.1119058,-0.3256589
3714,0.3039024,0.04423466,-0.3794918
3716,0.3250574,-0.03426402,-0.4015385
3718,0.3250574,-0.03426402,-0.4015385
3721,0.3658403,-0.04845664,-0.4405747
3723,0.3658403,-0.04845664,-0.4405747
3725,0.3835945,-0.05595291,-0.4588492
3728,0.4297835,-0.05233916,-0.5059038
3730,0.4297835,-0.05233916,-0.5059038
3732,0.4489339,0.05595291,-0.5252593
3735,0.4489339,0.05595291,-0.5252593
3737,0.4909863,0.06255726,-0.5675176
3739,0.4909863,0.06255726,-0.5675176
3742,0.5128186,0.06852804,-0.5891711
3744,0.5630175,0.07132626,-0.6385778
3746,0.5630175,0.07132626,-0.6385778
3749,0.5891711,0.07132626,-0.6649964
3751,0.5891711,0.07132626,-0.6649964
3753,0.64589,0.07401875,-0.7217214
3756,0.64589,0.07401875,-0.7217214
3759,0.7002546,0.07401875,-0.7760689
3761,0.7380747,0.07132626,-0.8139727
3763,0.7380747,0.07132626,-0.8139727
3766,0.8018627,0.07661668,-0.8780415
3768,0.8018627,0.07661668,-0.8780415
3770,0.8467289,0.07401875,-0.9228091
3773,0.9217481,-0.07912937,-0.997992
3775,0.9217481,-0.07912937,-0.997992
3777,0.9733753,-0.08156469,-1.049038
3780,0.9733753,-0.08156469,-1.049038
3782,1.060171,-0.1046783,-1.132979
3784,1.060171,-0.1046783,-1.132979
3787,1.153857,-0.1153499,-1.225252
3789,1.205285,-0.1153499,-1.276409
3791,1.205285,-0.1153499,-1.276409
3794,1.314178,-0.1119058,-1.385928
3796,1.314178,-0.1119058,-1.385928
3799,1.369737,-0.1083524,-1.441572
3802,1.501938,-0.1506579,-1.570224
3804,1.501938,-0.1506579,-1.570224
3806,1.57545,-0.1907741,-1.639605
3809,1.57545,-0.1907741,-1.639605
3811,1.707429,-0.2289973,-1.767797
3813,1.707429,-0.2289973,-1.767797
3816,1.767354,-0.2349025,-1.827885
3818,1.894136,-0.2668786,-1.951841
3820,1.894136,-0.2668786,-1.951841
3823,2.015477,-0.3083766,-2.068668
3825,2.015477,-0.3083766,-2.068668
3827,2.068384,-0.3268584,-2.119603
3830,2.068384,-0.3268584,-2.119603
3832,2.225807,-0.4191812,-2.263994
3834,2.381212,-0.4909863,-2.408916
3837,2.381212,-0.4909863,-2.408916
3840,2.46005,-0.5218958,-2.48341
3842,2.46005,-0.5218958,-2.48341
3844,2.621743,-0.5595313,-2.641603
3847,2.702043,-0.5699261,-2.721964
3849,2.702043,-0.5699261,-2.721964
3851,2.86949,-0.6081289,-2.885816
3854,2.86949,-0.6081289,-2.885816
3856,2.956713,-0.633656,-2.969925
3858,2.956713,-0.633656,-2.969925
3861,3.125684,-0.6608641,-3.1375
3863,3.280083,-0.6728944,-3.293129
3865,3.280083,-0.6728944,-3.293129
3868,3.34954,-0.680988,-3.362491
3870,3.34954,-0.680988,-3.362491
3872,3.554461,-0.8127698,-3.543316
3875,3.643682,-0.8656976,-3.622393
3877,3.643682,-0.8656976,-3.622393
3879,3.877726,-1.006582,-3.828327
3883,3.877726,-1.006582,-3.828327
3885,4.091798,-1.101984,-4.024771
3887,4.091798,-1.101984,-4.024771
3890,4.192832,-1.136428,-4.120368
3892,4.371525,-1.19812,-4.289209
3894,4.371525,-1.19812,-4.289209
3897,4.492134,-1.248822,-4.400596
3899,4.492134,-1.248822,-4.400596
3901,4.707692,-1.337352,-4.600066
3904,4.937291,-1.367163,-4.8312
3906,4.937291,-1.367163,-4.8312
3908,5.042088,-1.385221,-4.935346
3911,5.042088,-1.385221,-4.935346
3913,5.291576,-1.419962,-5.186215
3915,5.291576,-1.419962,-5.186215
3918,5.403414,-1.439399,-5.297572
3920,5.641182,-1.486353,-5.53311
3922,5.641182,-1.486353,-5.53311
3926,5.751866,-1.510902,-5.641947
3928,5.751866,-1.510902,-5.641947
3930,6.045232,-1.640679,-5.912314
3932,6.045232,-1.640679,-5.912314
3935,6.174126,-1.695121,-6.031597
3937,6.45154,-1.807103,-6.289492
3939,6.45154,-1.807103,-6.289492
3942,6.592819,-1.862356,-6.421228
3944,6.592819,-1.862356,-6.421228
3946,6.877916,-1.975164,-6.686331
3949,7.024789,-2.033458,-6.822742
3951,7.024789,-2.033458,-6.822742
3953,7.320326,-2.087598,-7.117228
3956,7.320326,-2.087598,-7.117228
3958,7.454326,-2.115906,-7.249521
3960,7.454326,-2.115906,-7.249521
3963,7.717776,-2.155586,-7.513818
3965,7.84823,-2.170515,-7.645805
3968,7.84823,-2.170515,-7.645805
3971,8.128206,-2.199892,-7.930311
3973,8.128206,-2.199892,-7.930311
3975,8.255878,-2.217967,-8.058589
3978,8.541713,-2.298655,-8.334066
3980,8.541713,-2.298655,-8.334066
3982,8.828729,-2.402081,-8.604074
3985,8.828729,-2.402081,-8.604074
3987,8.990141,-2.444405,-8.759885
3989,8.990141,-2.444405,-8.759885
3992,9.145743,-2.485774,-8.90993
3994,9.487755,-2.596688,-9.233567
3996,9.487755,-2.596688,-9.233567
3999,9.66414,-2.659989,-9.398437
4001,9.66414,-2.659989,-9.398437
4003,10.0076,-2.7652,-9.724738
4006,10.17411,-2.809722,-9.884772
4008,10.17411,-2.809722,-9.884772
4011,10.5086,-2.907374,-10.20432
4013,10.5086,-2.907374,-10.20432
4016,10.67793,-2.959558,-10.36546
4018,10.67793,-2.959558,-10.36546
4020,11.03637,-3.079688,-10.7037
4023,11.21686,-3.143235,-10.87308
4025,11.21686,-3.143235,-10.87308
4027,11.39008,-3.202896,-11.03601
4030,11.39008,-3.202896,-11.03601
4032,11.74788,-3.268543,-11.38975
4034,11.74788,-3.268543,-11.38975
4037,11.91228,-3.302212,-11.55122
4039,12.21166,-3.294912,-11.86506
4041,12.21166,-3.294912,-11.86506
4044,12.36445,-3.303339,-12.02159
4046,12.36445,-3.303339,-12.02159
4048,12.72408,-3.367262,-12.37564
4051,12.8901,-3.399379,-12.53849
4054,12.8901,-3.399379,-12.53849
4056,13.21451,-3.382114,-12.87814
4059,13.21451,-3.382114,-12.87814
4061,13.38632,-3.379566,-13.05589
4063,13.38632,-3.379566,-13.05589
4066,13.71076,-3.390613,-13.38726
4068,13.86697,-3.402315,-13.54513
4070,13.86697,-3.402315,-13.54513
4073,14.23604,-3.506154,-13.89918
4075,14.23604,-3.506154,-13.89918
4077,14.40913,-3.552367,-14.0658
4080,14.81069,-3.663296,-14.45024
4082,14.81069,-3.663296,-14.45024
4084,15.05419,-3.762495,-14.67433
4087,15.05419,-3.762495,-14.67433
4089,15.05419,-3.762495,-14.67433
4091,15.05419,-3.762495,-14.67433
4094,15.05419,-3.762495,-14.67433
4097,15.65637,-3.977295,-15.23754
4099,15.65637,-3.977295,-15.23754
4101,15.91631,-4.065679,-15.48168
4104,15.91631,-4.065679,-15.48168
4106,16.39677,-4.226561,-15.93455
4108,16.39677,-4.226561,-15.93455
4111,16.6145,-4.296235,-16.14056
4113,17.02987,-4.423237,-16.53558
4115,17.02987,-4.423237,-16.53558
4118,17.23028,-4.482269,-16.72694
4120,17.23028,-4.482269,-16.72694
4122,17.61366,-4.539887,-17.10987
4125,17.80115,-4.572775,-17.29553
4127,17.80115,-4.572775,-17.29553
4129,18.19245,-4.645195,-17.68188
4132,18.19245,-4.645195,-17.68188
4134,18.38046,-4.68266,-17.86658
4136,18.38046,-4.68266,-17.86658
4140,18.73848,-4.721031,-18.22743
4142,18.90635,-4.743714,-18.39517
4144,18.90635,-4.743714,-18.39517
4147,19.24431,-4.801753,-18.7297
4149,19.24431,-4.801753,-18.7297
4151,19.41992,-4.834807,-18.90258
4154,19.78229,-4.901089,-19.25848
4156,19.78229,-4.901089,-19.25848
4158,19.95501,-4.934274,-19.42769
4161,19.95501,-4.934274,-19.42769
4163,20.27737,-4.985309,-19.74671
4165,20.27737,-4.985309,-19.74671
4168,20.44201,-5.01415,-19.90886
4170,20.75132,-5.051444,-20.21964
4172,20.75132,-5.051444,-20.21964
4175,21.0585,-5.097929,-20.52526
4177,21.0585,-5.097929,-20.52526
4179,21.21453,-5.102539,-20.68496
4183,21.51897,-5.124188,-20.99317
4185,21.51897,-5.124188,-20.99317
4187,21.65359,-5.127399,-21.13173
4189,21.65359,-5.127399,-21.13173
4192,21.9382,-5.148449,-21.4205
4194,21.9382,-5.148449,-21.4205
4196,22.19485,-5.193767,-21.67533
4199,22.32687,-5.21763,-21.806
4201,22.32687,-5.21763,-21.806
4203,22.57565,-5.256168,-22.05424
4206,22.57565,-5.256168,-22.05424
4208,22.82129,-5.29128,-22.30016
4210,22.82129,-5.29128,-22.30016
4213,22.92201,-5.291946,-22.40536
4215,23.15462,-5.308066,-22.64339
4217,23.15462,-5.308066,-22.64339
4220,23.25128,-5.312384,-22.74347
4222,23.25128,-5.312384,-22.74347
4225,23.46162,-5.330758,-22.95803
4228,23.53728,-5.316366,-23.04157
4230,23.53728,-5.316366,-23.04157
4232,23.73071,-5.308546,-23.24593
4235,23.73071,-5.308546,-23.24593
4237,23.87513,-5.29165,-23.40338
4239,23.87513,-5.29165,-23.40338
4242,23.95992,-5.290576,-23.49273
4244,24.10789,-5.303302,-23.64683
4246,24.10789,-5.303302,-23.64683
4249,24.1683,-5.31397,-23.70923
4251,24.1683,-5.31397,-23.70923
4253,24.26109,-5.325536,-23.80759
4256,24.30396,-5.329067,-23.85373
4258,24.30396,-5.329067,-23.85373
4260,24.38863,-5.349985,-23.94059
4263,24.38863,-5.349985,-23.94059
4265,24.48502,-5.380591,-24.03629
4268,24.48502,-5.380591,-24.03629
4271,24.5127,-5.368085,-24.06968
4273,24.61392,-5.358915,-24.17947
4275,24.61392,-5.358915,-24.17947
4277,24.62614,-5.330096,-24.20114
4280,24.62614,-5.330096,-24.20114
4282,24.69782,-5.294982,-24.28708
4284,24.75269,-5.285908,-24.34743
4287,24.75269,-5.285908,-24.34743
4289,24.78974,-5.282088,-24.39046
4291,24.78974,-5.282088,-24.39046
4294,24.82837,-5.293279,-24.43204
4296,24.82837,-5.293279,-24.43204
4298,24.84649,-5.303376,-24.45076
4301,24.85012,-5.276,-24.46539
4303,24.85012,-5.276,-24.46539
4305,24.84365,-5.247176,-24.46755
4308,24.84365,-5.247176,-24.46755
4311,24.82156,-5.189162,-24.46221
4313,24.82156,-5.189162,-24.46221
4316,24.80879,-5.138927,-24.46421
4318,24.82122,-5.122123,-24.48251
4320,24.82122,-5.122123,-24.48251
4323,24.79507,-5.099888,-24.46332
4325,24.79507,-5.099888,-24.46332
4327,24.80303,-5.092968,-24.4744
4330,24.78846,-5.172256,-24.44691
4332,24.78846,-5.172256,-24.44691
4334,24.79725,-5.202926,-24.45131
4337,24.79725,-5.202926,-24.45131
4339,24.77501,-5.298533,-24.41187
4341,24.77501,-5.298533,-24.41187
4344,24.75154,-5.368998,-24.37564
4346,24.73698,-5.397936,-24.35575
4348,24.73698,-5.397936,-24.35575
4352,24.70353,-5.433685,-24.31621
4354,24.70353,-5.433685,-24.31621
4356,24.67924,-5.45388,-24.28938
4359,24.68097,-5.464146,-24.29024
4361,24.68097,-5.464146,-24.29024
4363,24.6287,-5.431593,-24.24512
4365,24.6287,-5.431593,-24.24512
4368,24.61978,-5.42224,-24.23891
4370,24.61978,-5.42224,-24.23891
4372,24.53192,-5.344598,-24.1693
4375,24.50812,-5.317877,-24.1524
4377,24.50812,-5.317877,-24.1524
4379,24.37747,-5.138469,-24.06078
4382,24.37747,-5.138469,-24.06078
4384,24.28992,-5.02231,-23.99759
4386,24.28992,-5.02231,-23.99759
4389,24.25633,-4.980355,-23.97249
4391,24.18608,-4.946686,-23.90907
4393,24.18608,-4.946686,-23.90907
4397,24.15101,-4.947162,-23.874
4399,24.15101,-4.947162,-23.874
4401,24.10745,-4.946527,-23.83171
4404,24.07125,-4.982086,-23.78589
4406,24.07125,-4.982086,-23.78589
4408,24.02391,-5.034972,-23.72488
4411,24.02391,-5.034972,-23.72488
4413,23.98559,-5.066548,-23.67738
4415,23.98559,-5.066548,-23.67738
4418,23.93414,-5.114888,-23.61267
4420,23.87483,-5.100465,-23.55439
4422,23.87483,-5.100465,-23.55439
4425,23.78925,-5.079409,-23.4709
4427,23.78925,-5.079409,-23.4709
4429,23.72348,-5.046982,-23.41049
4432,23.62571,-4.997947,-23.32134
4434,23.62571,-4.997947,-23.32134
4436,23.54929,-5.044186,-23.23069
4440,23.54929,-5.044186,-23.23069
4442,23.52059,-5.061402,-23.19684
4444,23.52059,-5.061402,-23.19684
4447,23.43004,-5.109216,-23.09344
4449,23.39544,-5.127361,-23.05408
4451,23.39544,-5.127361,-23.05408
4453,23.29906,-5.108602,-22.96135
4456,23.29906,-5.108602,-22.96135
4458,23.24234,-5.080952,-22.91083
4460,23.12515,-5.010006,-22.80877
4463,23.12515,-5.010006,-22.80877
4465,23.01722,-4.937489,-22.71585
4467,23.01722,-4.937489,-22.71585
4470,22.95576,-4.893289,-22.66294
4472,22.95576,-4.893289,-22.66294
4474,22.85534,-4.82487,-22.57589
4477,22.81982,-4.827184,-22.53896
4480,22.81982,-4.827184,-22.53896
4482,22.75723,-4.827874,-22.47499
4485,22.75723,-4.827874,-22.47499
4487,22.68298,-4.843268,-22.39348
4489,22.68298,-4.843268,-22.39348
4492,22.65047,-4.847878,-22.35856
4494,22.57539,-4.840193,-22.28231
4496,22.57539,-4.840193,-22.28231
4499,22.53476,-4.830632,-22.2424
4501,22.53476,-4.830632,-22.2424
4503,22.45938,-4.829172,-22.16454
4506,22.39072,-4.838007,-22.09144
4508,22.39072,-4.838007,-22.09144
4510,22.35577,-4.850342,-22.05226
4513,22.35577,-4.850342,-22.05226
4515,22.29248,-4.867397,-21.98283
4517,22.29248,-4.867397,-21.98283
4520,22.25197,-4.832173,-21.94875
4523,22.17597,-4.776555,-21.88275
4525,22.17597,-4.776555,-21.88275
4528,22.14162,-4.752173,-21.85215
4530,22.14162,-4.752173,-21.85215
4532,22.07863,-4.713016,-21.79516
4535,22.04869,-4.696903,-21.76768
4537,22.04869,-4.696903,-21.76768
4539,21.98388,-4.638401,-21.71445
4541,21.98388,-4.638401,-21.71445
4544,21.92101,-4.584881,-21.66286
4546,21.92101,-4.584881,-21.66286
4548,21.88906,-4.558489,-21.63669
4551,21.82959,-4.506196,-21.58846
4553,21.82959,-4.506196,-21.58846
4555,21.8018,-4.480739,-21.56603
4558,21.8018,-4.480739,-21.56603
4560,21.75307,-4.437428,-21.52625
4562,21.75307,-4.437428,-21.52625
4566,21.73028,-4.418231,-21.50732
4568,21.69087,-4.388562,-21.47368
4570,21.69087,-4.388562,-21.47368
4573,21.65596,-4.365876,-21.44304
4575,21.65596,-4.365876,-21.44304
4577,21.6442,-4.355861,-21.433
4580,21.61591,-4.336031,-21.40816
4582,21.61591,-4.336031,-21.40816
4584,21.60022,-4.326309,-21.39417
4587,21.60022,-4.326309,-21.39417
4589,21.58511,-4.314295,-21.38058
4591,21.58511,-4.314295,-21.38058
4594,21.57129,-4.309753,-21.36682
4596,21.56562,-4.310117,-21.36068
4598,21.56562,-4.310117,-21.36068
4601,21.55878,-4.302977,-21.35466
4603,21.55878,-4.302977,-21.35466
4605,21.55664,-4.296874,-21.35348
4609,21.55709,-4.293727,-21.35416
4611,21.55709,-4.293727,-21.35416
4613,21.55847,-4.294868,-21.35517
4616,21.55847,-4.294868,-21.35517
4618,21.5514,-4.292267,-21.34829
4620,21.5514,-4.292267,-21.34829
4622,21.5764,-4.321145,-21.36609
4625,21.582,-4.330155,-21.36931
4627,21.582,-4.330155,-21.36931
4629,21.60219,-4.344289,-21.38596
4632,21.60219,-4.344289,-21.38596
4634,21.62528,-4.362465,-21.40422
4636,21.66093,-4.380477,-21.43542
4639,21.66093,-4.380477,-21.43542
4641,21.67105,-4.385883,-21.44407
4643,21.67105,-4.385883,-21.44407
4646,21.71039,-4.391685,-21.48139
4648,21.71039,-4.391685,-21.48139
4651,21.72258,-4.392845,-21.49296
4654,21.76632,-4.390704,-21.5364
4656,21.76632,-4.390704,-21.5364
4658,21.78044,-4.389009,-21.55053
4661,21.78044,-4.389009,-21.55053
4663,21.81572,-4.368612,-21.58973
4665,21.81572,-4.368612,-21.58973
4668,21.8359,-4.352577,-21.61285
4670,21.88565,-4.382712,-21.65497
4672,21.88565,-4.382712,-21.65497
4675,21.95863,-4.426867,-21.71656
4677,21.95863,-4.426867,-21.71656
4679,22.01462,-4.462737,-21.76403
4682,22.09921,-4.516876,-21.83553
4684,22.09921,-4.516876,-21.83553
4686,22.16533,-4.490128,-21.90731
4689,22.16533,-4.490128,-21.90731
4691,22.19076,-4.480258,-21.93475
4694,22.19076,-4.480258,-21.93475
4697,22.22481,-4.453598,-21.97493
4699,22.27922,-4.412952,-22.03843
4701,22.27922,-4.412952,-22.03843
4704,22.31997,-4.38441,-22.08531
4706,22.31997,-4.38441,-22.08531
4708,22.37945,-4.38508,-22.14412
4710,22.52179,-4.353747,-22.29186
4713,22.52179,-4.353747,-22.29186
4715,22.57746,-4.341268,-22.34959
4717,22.57746,-4.341268,-22.34959
4720,22.66714,-4.320963,-22.44258
4722,22.66714,-4.320963,-22.44258
4724,22.74301,-4.323048,-22.51705
4727,22.94115,-4.333185,-22.71062
4729,22.94115,-4.333185,-22.71062
4731,23.02029,-4.336122,-22.78815
4734,23.02029,-4.336122,-22.78815
4737,23.11904,-4.328391,-22.88754
4739,23.28039,-4.315113,-23.04996
4742,23.28039,-4.315113,-23.04996
4744,23.34746,-4.309344,-23.11752
4746,23.34746,-4.309344,-23.11752
4749,23.44015,-4.320238,-23.20871
4751,23.44015,-4.320238,-23.20871
4753,23.63431,-4.337115,-23.4004
4756,23.73118,-4.343749,-23.49623
4758,23.73118,-4.343749,-23.49623
4760,23.92289,-4.361477,-23.68524
4763,23.92289,-4.361477,-23.68524
4765,24.01816,-4.371615,-23.779
4767,24.01816,-4.371615,-23.779
4770,24.21122,-4.400551,-23.96704
4772,24.30831,-4.417743,-24.06099
4774,24.30831,-4.417743,-24.06099
4777,24.47878,-4.443869,-24.2266
4780,24.47878,-4.443869,-24.2266
4782,24.58399,-4.443869,-24.33129
4785,24.58399,-4.443869,-24.33129
4787,24.58399,-4.443869,-24.33129
4789,24.72838,-4.472995,-24.4691
4792,24.72838,-4.472995,-24.4691
4794,24.89327,-4.455621,-24.63822
4796,24.89327,-4.455621,-24.63822
4798,25.04013,-4.441488,-24.78848
4801,25.16956,-4.430007,-24.92064
4803,25.30524,-4.439106,-25.05548
4805,25.42564,-4.4466,-25.17512
4808,25.42564,-4.4466,-25.17512
4810,25.65239,-4.445587,-25.40319
4812,25.86048,-4.434912,-25.61408
4815,25.86048,-4.434912,-25.61408
4817,25.97507,-4.450739,-25.72617
4819,25.97507,-4.450739,-25.72617
4823,26.08101,-4.463965,-25.83006
4825,26.08101,-4.463965,-25.83006
4827,26.28367,-4.46458,-26.03301
4830,26.38414,-4.456192,-26.13514
4832,26.38414,-4.456192,-26.13514
4834,26.58652,-4.439767,-26.34134
4837,26.58652,-4.439767,-26.34134
4839,26.68692,-4.431908,-26.44378
4841,26.68692,-4.431908,-26.44378
4844,26.87428,-4.420092,-26.6342
4846,27.06607,-4.407534,-26.82824
4848,27.06607,-4.407534,-26.82824
4851,27.15362,-4.402821,-26.91666
4853,27.15362,-4.402821,-26.91666
4855,27.34884,-4.434824,-27.10716
4858,27.4396,-4.446733,-27.19621
4860,27.4396,-4.446733,-27.19621
4862,27.62946,-4.4719,-27.38182
4866,27.62946,-4.4719,-27.38182
4868,27.71764,-4.48157,-27.46841
4870,27.71764,-4.48157,-27.46841
4873,27.89961,-4.455885,-27.65556
4875,28.07508,-4.433012,-27.83536
4877,28.07508,-4.433012,-27.83536
4880,28.16191,-4.42182,-27.92419
4882,28.16191,-4.42182,-27.92419
4884,28.33392,-4.404867,-28.09927
4886,28.42226,-4.398993,-28.18806
4889,28.42226,-4.398993,-28.18806
4891,28.59189,-4.389856,-28.35849
4893,28.59189,-4.389856,-28.35849
4896,28.75948,-4.416457,-28.52113
4898,28.75948,-4.416457,-28.52113
4900,28.84122,-4.426336,-28.60105
4903,28.99178,-4.450959,-28.74749
4905,28.99178,-4.450959,-28.74749
4908,29.06882,-4.460322,-28.82298
4911,29.06882,-4.460322,-28.82298
4913,29.23594,-4.469228,-28.98878
4915,29.39668,-4.476016,-29.14855
4918,29.39668,-4.476016,-29.14855
4920,29.47542,-4.481788,-29.22652
4922,29.47542,-4.481788,-29.22652
4925,29.638,-4.491436,-29.38785
4927,29.638,-4.491436,-29.38785
4929,29.71358,-4.508629,-29.46061
4932,29.86441,-4.535528,-29.60708
4934,29.86441,-4.535528,-29.60708
4936,29.93819,-4.55277,-29.67797
4939,29.93819,-4.55277,-29.67797
4941,30.08867,-4.580394,-29.82386
4943,30.08867,-4.580394,-29.82386
4946,30.15148,-4.597425,-29.88373
4948,30.22228,-4.612653,-29.95192
4951,30.22228,-4.612653,-29.95192
4954,30.34847,-4.651979,-30.07184
4956,30.34847,-4.651979,-30.07184
4958,30.41866,-4.668331,-30.13944
4961,30.48581,-4.688429,-30.20338
4963,30.48581,-4.688429,-30.20338
4965,30.62495,-4.721902,-30.33723
4968,30.62495,-4.721902,-30.33723
4970,30.68882,-4.749245,-30.39672
4972,30.68882,-4.749245,-30.39672
4974,30.82403,-4.79424,-30.52472
4977,30.88109,-4.825113,-30.5768
4979,30.88109,-4.825113,-30.5768
4981,31.00227,-4.875842,-30.6898
4984,31.00227,-4.875842,-30.6898
4986,31.05599,-4.89669,-30.74007
4988,31.11562,-4.916096,-30.79654
4992,31.11562,-4.916096,-30.79654
4994,31.21668,-4.925373,-30.89693
4996,31.21668,-4.925373,-30.89693
4999,31.26074,-4.92004,-30.94258
5001,31.26074,-4.92004,-30.94258
5003,31.34999,-4.916534,-31.03373
5006,31.39385,-4.917252,-31.07808
5008,31.39385,-4.917252,-31.07808
5010,31.49135,-4.945855,-31.1713
5013,31.49135,-4.945855,-31.1713
5015,31.54478,-4.969446,-31.22079
5017,31.54478,-4.969446,-31.22079
5020,31.63161,-4.985898,-31.30576
5022,31.66632,-4.983462,-31.34164
5024,31.66632,-4.983462,-31.34164
5027,31.72456,-4.967593,-31.40452
5029,31.72456,-4.967593,-31.40452
5031,31.7525,-4.956538,-31.43545
5035,31.80427,-4.941416,-31.49192
5037,31.80427,-4.941416,-31.49192
5039,31.83071,-4.936616,-31.52019
5042,31.83071,-4.936616,-31.52019
5044,31.86525,-4.934036,-31.5561
5046,31.86525,-4.934036,-31.5561
5049,31.90982,-4.948191,-31.59942
5051,31.94847,-4.962543,-31.63664
5053,31.94847,-4.962543,-31.63664
5056,31.96621,-4.970038,-31.65358
5058,31.96621,-4.970038,-31.65358
5060,31.99808,-4.994104,-31.68197
5062,32.01318,-5.00895,-31.69471
5065,32.01318,-5.00895,-31.69471
5067,32.0309,-5.015439,-31.71188
5069,32.0309,-5.015439,-31.71188
5072,32.03663,-5.010984,-31.71874
5074,32.03663,-5.010984,-31.71874
5076,32.04295,-4.998966,-31.72739
5080,32.04565,-4.992417,-31.73122
5082,32.04565,-4.992417,-31.73122
5084,32.05219,-4.983029,-31.73921
5087,32.05219,-4.983029,-31.73921
5089,32.05602,-4.979805,-31.74348
5091,32.0793,-4.977286,-31.7672
5094,32.0793,-4.977286,-31.7672
5096,32.09701,-4.999829,-31.78035
5098,32.09701,-4.999829,-31.78035
5101,32.13964,-5.036023,-31.81586
5103,32.13964,-5.036023,-31.81586
5105,32.17152,-5.08099,-31.83874
5108,32.1922,-5.099466,-31.8558
5110,32.1922,-5.099466,-31.8558
5112,32.20623,-5.115271,-31.8665
5115,32.20623,-5.115271,-31.8665
5117,32.21834,-5.122811,-31.87712
5120,32.21834,-5.122811,-31.87712
5123,32.22874,-5.147574,-31.88248
5125,32.24011,-5.158676,-31.89168
5127,32.24011,-5.158676,-31.89168
5130,32.24258,-5.158221,-31.89401
5132,32.24258,-5.158221,-31.89401
5134,32.24998,-5.160006,-31.90104
5137,32.24658,-5.154877,-31.89859
5139,32.24658,-5.154877,-31.89859
5141,32.25886,-5.155865,-31.91077
5144,32.25886,-5.155865,-31.91077
5146,32.25579,-5.154193,-31.908
5148,32.25579,-5.154193,-31.908
5150,32.26181,-5.154801,-31.91396
5153,32.25822,-5.152748,-31.91074
5155,32.25822,-5.152748,-31.91074
5157,32.26158,-5.153394,-31.91399
5160,32.26158,-5.153394,-31.91399
5163,32.25896,-5.152786,-31.91143
5165,32.26286,-5.153965,-31.9151
5168,32.26286,-5.153965,-31.9151
5170,32.25829,-5.166684,-31.90783
5172,32.25829,-5.166684,-31.90783
5175,32.26064,-5.172673,-31.90898
5177,32.26064,-5.172673,-31.90898
5179,32.25601,-5.172408,-31.9042
5182,32.26147,-5.175323,-31.90903
5184,32.26147,-5.175323,-31.90903
5186,32.25809,-5.180319,-31.90464
5189,32.25809,-5.180319,-31.90464
5191,32.26011,-5.189993,-31.90471
5193,32.25607,-5.192823,-31.90005
5196,32.25607,-5.192823,-31.90005
5198,32.25538,-5.198857,-31.89811
5200,32.25538,-5.198857,-31.89811
5203,32.24562,-5.193012,-31.88947
5206,32.24562,-5.193012,-31.88947
5208,32.24474,-5.19188,-31.88884
5211,32.24015,-5.197123,-31.88331
5213,32.24015,-5.197123,-31.88331
5215,32.23751,-5.202135,-31.87976
5218,32.23751,-5.202135,-31.87976
5220,32.23061,-5.21346,-31.87068
5222,32.23061,-5.21346,-31.87068
5225,32.22525,-5.224385,-31.86315
5227,32.21903,-5.226523,-31.85643
5229,32.21903,-5.226523,-31.85643
5231,32.21388,-5.230907,-31.8503
5234,32.21388,-5.230907,-31.8503
5236,32.2127,-5.225735,-31.8497
5238,32.2143,-5.21962,-31.8519
5241,32.2143,-5.21962,-31.8519
5243,32.2155,-5.211918,-31.85403
5245,32.2155,-5.211918,-31.85403
5249,32.21547,-5.20718,-31.85459
5251,32.21547,-5.20718,-31.85459
5253,32.20723,-5.19848,-31.84785
5256,32.20098,-5.194596,-31.84241
5258,32.20098,-5.194596,-31.84241
5260,32.18902,-5.187387,-31.83197
5263,32.18902,-5.187387,-31.83197
5265,32.17978,-5.181907,-31.82396
5267,32.15525,-5.150276,-31.80556
5270,32.15525,-5.150276,-31.80556
5272,32.1208,-5.103345,-31.78015
5274,32.1208,-5.103345,-31.78015
5277,32.10896,-5.08604,-31.77164
5279,32.10896,-5.08604,-31.77164
5281,32.08413,-5.04706,-31.75483
5284,32.07557,-5.032248,-31.74931
5286,32.07557,-5.032248,-31.74931
5288,32.04716,-5.004842,-31.72668
5292,32.04716,-5.004842,-31.72668
5294,32.02977,-4.99685,-31.71157
5296,32.02977,-4.99685,-31.71157
5299,32.02394,-4.998301,-31.70591
5301,32.0172,-5.012626,-31.69728
5303,32.0172,-5.012626,-31.69728
5306,32.01434,-5.031819,-31.69145
5308,32.01434,-5.031819,-31.69145
5310,32.01334,-5.038239,-31.68951
5313,32.01081,-5.049543,-31.68522
5315,32.01081,-5.049543,-31.68522
5317,32.00994,-5.053228,-31.6838
5319,32.00994,-5.053228,-31.6838
5322,31.99441,-5.034778,-31.67216
5324,31.99441,-5.034778,-31.67216
5326,31.98859,-5.027418,-31.66791
5329,31.98049,-5.013447,-31.66257
5331,31.98049,-5.013447,-31.66257
5334,31.97737,-5.007855,-31.6606
5337,31.97737,-5.007855,-31.6606
5339,31.97,-4.987352,-31.65691
5341,31.96349,-4.963016,-31.65492
5344,31.96349,-4.963016,-31.65492
5346,31.96039,-4.949221,-31.65442
5348,31.96039,-4.949221,-31.65442
5351,31.95539,-4.92748,-31.65353
5353,31.95539,-4.92748,-31.65353
5355,31.94816,-4.89745,-31.65179
5358,31.9453,-4.885676,-31.6511
5360,31.9453,-4.885676,-31.6511
5362,31.93377,-4.863008,-31.64385
5365,31.93377,-4.863008,-31.64385
5367,31.92941,-4.853976,-31.64119
5369,31.91051,-4.830389,-31.62682
5372,31.91051,-4.830389,-31.62682
5374,31.90327,-4.820727,-31.62143
5377,31.90327,-4.820727,-31.62143
5380,31.88327,-4.795139,-31.60622
5382,31.88327,-4.795139,-31.60622
5384,31.8691,-4.775899,-31.59568
5387,31.85988,-4.765346,-31.58862
5389,31.85988,-4.765346,-31.58862
5391,31.84505,-4.747347,-31.57745
5394,31.84505,-4.747347,-31.57745
5396,31.82746,-4.714096,-31.56578
5398,31.82746,-4.714096,-31.56578
5401,31.7999,-4.661738,-31.54749
5403,31.78497,-4.638739,-31.53639
5405,31.78497,-4.638739,-31.53639
5407,31.7608,-4.600662,-31.51857
5410,31.7608,-4.600662,-31.51857
5412,31.73785,-4.575088,-31.49965
5414,31.72838,-4.563599,-31.49204
5417,31.72838,-4.563599,-31.49204
5420,31.6753,-4.51193,-31.44801
5422,31.6753,-4.51193,-31.44801
5425,31.6544,-4.490738,-31.43082
5427,31.6544,-4.490738,-31.43082
5429,31.60113,-4.439282,-31.38652
5432,31.57996,-4.418097,-31.36902
5434,31.57996,-4.418097,-31.36902
5436,31.54002,-4.391596,-31.33359
5439,31.54002,-4.391596,-31.33359
5441,31.52119,-4.383784,-31.31608
5443,31.48597,-4.373362,-31.28259
5446,31.48597,-4.373362,-31.28259
5448,31.47001,-4.370271,-31.26714
5450,31.47001,-4.370271,-31.26714
5453,31.44826,-4.381907,-31.24365
5455,31.44826,-4.381907,-31.24365
5457,31.44071,-4.393246,-31.23438
5460,31.42981,-4.4102,-31.22114
5463,31.42981,-4.4102,-31.22114
5465,31.42178,-4.420712,-31.21191
5468,31.42178,-4.420712,-31.21191
5470,31.41885,-4.424388,-31.20868
5472,31.41885,-4.424388,-31.20868
5475,31.41173,-4.427309,-31.20157
5477,31.40331,-4.425982,-31.19367
5479,31.40331,-4.425982,-31.19367
5482,31.39857,-4.424034,-31.18933
5484,31.39857,-4.424034,-31.18933
5486,31.39358,-4.421554,-31.18485
5489,31.38684,-4.418984,-31.17876
5491,31.38684,-4.418984,-31.17876
5493,31.38684,-4.418984,-31.17876
5495,31.38684,-4.418984,-31.17876
5498,31.37698,-4.417876,-31.16931
5500,31.37698,-4.417876,-31.16931
5502,31.36792,-4.416102,-31.16075
5506,31.3513,-4.414682,-31.1446
5508,31.3513,-4.414682,-31.1446
5510,31.33808,-4.412685,-31.13191
5513,31.33808,-4.412685,-31.13191
5515,31.33261,-4.411798,-31.12668
5517,31.32294,-4.410066,-31.11745
5520,31.32294,-4.410066,-31.11745
5522,31.31849,-4.409222,-31.11324
5524,31.31849,-4.409222,-31.11324
5527,31.31043,-4.408867,-31.10536
5529,31.31043,-4.408867,-31.10536
5531,31.30334,-4.408911,-31.09835
5534,31.30155,-4.413085,-31.0959
5536,31.30155,-4.413085,-31.0959
5538,31.29728,-4.417698,-31.09091
5541,31.29728,-4.417698,-31.09091
5543,31.29495,-4.418762,-31.08845
5545,31.29181,-4.429034,-31.08363
5549,31.29181,-4.429034,-31.08363
5551,31.2899,-4.432128,-31.08124
5553,31.2899,-4.432128,-31.08124
5556,31.28924,-4.450871,-31.07751
5558,31.28924,-4.450871,-31.07751
5560,31.29257,-4.460279,-31.07935
5563,31.29543,-4.462473,-31.08189
5565,31.29543,-4.462473,-31.08189
5567,31.30368,-4.469008,-31.08933
5570,31.30368,-4.469008,-31.08933
5572,31.3084,-4.472908,-31.09361
5574,31.3084,-4.472908,-31.09361
5577,31.31796,-4.482094,-31.10204
5579,31.32598,-4.490738,-31.10896
5581,31.32598,-4.490738,-31.10896
5583,31.32832,-4.49366,-31.11094
5586,31.32832,-4.49366,-31.11094
5588,31.33742,-4.49806,-31.11968
5591,31.34018,-4.499454,-31.12234
5594,31.34018,-4.499454,-31.12234
5596,31.34887,-4.505326,-31.13039
5598,31.34887,-4.505326,-31.13039
5601,31.35155,-4.507195,-31.13288
5603,31.35155,-4.507195,-31.13288
5605,31.3599,-4.512624,-31.14068
5608,31.36246,-4.51436,-31.14308
5610,31.36246,-4.51436,-31.14308
5612,31.37101,-4.519087,-31.15121
5615,31.37101,-4.519087,-31.15121
5617,31.37363,-4.520648,-31.1537
5619,31.37737,-4.523506,-31.15723
5622,31.38013,-4.525628,-31.15984
5624,31.38208,-4.527359,-31.1617
5626,31.38208,-4.527359,-31.1617
5629,31.38547,-4.529435,-31.16495
5632,31.38547,-4.529435,-31.16495
5634,31.38969,-4.532374,-31.16903
5637,31.39206,-4.533498,-31.17143
5639,31.39206,-4.533498,-31.17143
5641,31.39372,-4.534189,-31.17312
5644,31.39372,-4.534189,-31.17312
5646,31.39665,-4.534318,-31.17642
5648,31.39746,-4.534232,-31.17737
5651,31.39746,-4.534232,-31.17737
5653,31.39809,-4.534924,-31.178
5655,31.39837,-4.535441,-31.1783
5658,31.39843,-4.535787,-31.1784
5660,31.39843,-4.535787,-31.1784
5662,31.40108,-4.541398,-31.1801
5665,31.40306,-4.545838,-31.18132
5667,31.40306,-4.545838,-31.18132
5669,31.40127,-4.534924,-31.18176
5671,31.40127,-4.534924,-31.18176
5675,31.40035,-4.530645,-31.18171
5677,31.40035,-4.530645,-31.18171
5679,31.39863,-4.524719,-31.1811
5682,31.39773,-4.522164,-31.18068
5684,31.39773,-4.522164,-31.18068
5686,31.39137,-4.517657,-31.17531
5689,31.39137,-4.517657,-31.17531
5691,31.38886,-4.515749,-31.17323
5693,31.38667,-4.51384,-31.17144
5696,31.38667,-4.51384,-31.17144
5698,31.38251,-4.478991,-31.17293
5700,31.38251,-4.478991,-31.17293
5703,31.37872,-4.457291,-31.17257
5705,31.37872,-4.457291,-31.17257
5707,31.37544,-4.438929,-31.1722
5710,31.3655,-4.420092,-31.16475
5712,31.3655,-4.420092,-31.16475
5714,31.35952,-4.416989,-31.15883
5718,31.35952,-4.416989,-31.15883
5720,31.34752,-4.409666,-31.14724
5722,31.34169,-4.405667,-31.1417
5725,31.34169,-4.405667,-31.1417
5727,31.32953,-4.397702,-31.13019
5729,31.32953,-4.397702,-31.13019
5732,31.32348,-4.393826,-31.12448
5734,31.32348,-4.393826,-31.12448
5736,31.31142,-4.385705,-31.11324
5739,31.30564,-4.381684,-31.10788
5741,31.30564,-4.381684,-31.10788
5743,31.29341,-4.371033,-31.09695
5746,31.29341,-4.371033,-31.09695
5748,31.28725,-4.364889,-31.09158
5750,31.28725,-4.364889,-31.09158
5753,31.27514,-4.353567,-31.08094
5755,31.26937,-4.348435,-31.07586
5757,31.26937,-4.348435,-31.07586
5760,31.25564,-4.343568,-31.06263
5763,31.25564,-4.343568,-31.06263
5765,31.2483,-4.342846,-31.05527
5767,31.23441,-4.343523,-31.04099
5770,31.23441,-4.343523,-31.04099
5772,31.22266,-4.344965,-31.02879
5774,31.22266,-4.344965,-31.02879
5777,31.21519,-4.346543,-31.02095
5779,31.21519,-4.346543,-31.02095
5781,31.204,-4.347895,-31.00937
5784,31.19981,-4.347985,-31.00508
5786,31.19981,-4.347985,-31.00508
5788,31.19054,-4.350101,-30.99537
5791,31.19054,-4.350101,-30.99537
5793,31.18707,-4.350417,-30.99177
5795,31.17557,-4.354782,-30.97959
5798,31.17557,-4.354782,-30.97959
5800,31.16611,-4.353567,-30.97023
5803,31.16611,-4.353567,-30.97023
5806,31.16184,-4.351407,-30.96622
5808,31.16184,-4.351407,-30.96622
5810,31.15541,-4.347805,-30.96025
5813,31.14595,-4.345417,-30.951
5815,31.14595,-4.345417,-30.951
5817,31.14244,-4.344199,-30.94761
5820,31.14244,-4.344199,-30.94761
5822,31.13435,-4.336393,-30.94053
5824,31.13134,-4.333275,-30.93792
5827,31.13134,-4.333275,-30.93792
5829,31.12165,-4.327983,-30.92877
5831,31.12165,-4.327983,-30.92877
5834,31.11809,-4.325947,-30.92544
5836,31.11809,-4.325947,-30.92544
5838,31.10814,-4.314432,-30.91701
5840,31.09931,-4.306707,-30.90918
5843,31.09931,-4.306707,-30.90918
5846,31.0951,-4.303842,-30.90532
5848,31.0951,-4.303842,-30.90532
5851,31.08888,-4.29938,-30.89966
5853,31.08888,-4.29938,-30.89966
5855,31.07598,-4.280524,-30.88972
5858,31.05642,-4.25174,-30.87468
5860,31.05642,-4.25174,-30.87468
5862,31.03324,-4.221832,-30.85622
5865,31.03324,-4.221832,-30.85622
5867,31.02433,-4.210218,-30.84915
5869,31.00543,-4.18493,-30.83414
5872,31.00543,-4.18493,-30.83414
5874,30.99814,-4.175091,-30.82837
5876,30.99814,-4.175091,-30.82837
5879,30.9834,-4.157275,-30.81644
5881,30.9834,-4.157275,-30.81644
5883,30.97755,-4.150014,-30.81172
5886,30.96684,-4.139336,-30.8028
5889,30.96684,-4.139336,-30.8028
5891,30.95888,-4.130811,-30.79624
5894,30.95888,-4.130811,-30.79624
5896,30.95562,-4.130242,-30.79325
5898,30.95009,-4.128013,-30.78826
5901,30.95009,-4.128013,-30.78826
5903,30.94567,-4.105512,-30.78756
5905,30.94567,-4.105512,-30.78756
5908,30.94365,-4.096438,-30.78702
5910,30.94365,-4.096438,-30.78702
5912,30.93017,-4.099114,-30.77395
5915,30.92476,-4.099449,-30.76882
5917,30.92476,-4.099449,-30.76882
5919,30.91947,-4.09175,-30.76507
5922,30.91947,-4.09175,-30.76507
5924,30.91866,-4.085092,-30.76536
5926,30.91293,-4.08327,-30.76032
5928,30.91293,-4.08327,-30.76032
5932,30.90867,-4.086099,-30.75593
5934,30.90867,-4.086099,-30.75593
5936,30.89991,-4.093665,-30.7466
5939,30.89991,-4.093665,-30.7466
5941,30.89184,-4.101025,-30.73796
5943,30.88743,-4.106084,-30.73304
5946,30.88743,-4.106084,-30.73304
5948,30.88004,-4.11247,-30.72506
5950,30.88004,-4.11247,-30.72506
5953,30.8768,-4.115612,-30.72148
5955,30.8768,-4.115612,-30.72148
5957,30.87131,-4.119417,-30.71564
5960,30.86885,-4.120368,-30.71316
5962,30.86885,-4.120368,-30.71316
5964,30.86294,-4.127728,-30.70638
5967,30.86294,-4.127728,-30.70638
5969,30.86474,-4.131854,-30.70743
5971,30.86664,-4.137064,-30.70835
5975,30.86664,-4.137064,-30.70835
5977,30.86691,-4.138484,-30.70834
5979,30.86691,-4.138484,-30.70834
5982,30.87139,-4.129103,-30.71405
5984,30.87139,-4.129103,-30.71405
5986,30.87383,-4.128013,-30.7165
5989,30.87449,-4.129767,-30.71683
5991,30.87449,-4.129767,-30.71683
5993,30.87626,-4.122791,-30.7195
5996,30.87626,-4.122791,-30.7195
5998,30.87723,-4.115707,-30.72143
6000,30.87843,-4.10303,-30.72444
6003,30.87843,-4.10303,-30.72444
6005,30.87876,-4.097251,-30.7256
6007,30.87876,-4.097251,-30.7256
6010,30.87831,-4.094717,-30.72548
6012,30.87831,-4.094717,-30.72548
6014,30.87774,-4.096343,-30.72465
6017,30.87593,-4.096773,-30.72268
6020,30.87593,-4.096773,-30.72268
6022,30.87387,-4.095291,-30.72075
6024,30.87387,-4.095291,-30.72075
6027,30.87296,-4.094334,-30.71996
6029,30.87296,-4.094334,-30.71996
6031,30.86994,-4.106418,-30.71488
6034,30.86793,-4.115374,-30.71143
6036,30.86793,-4.115374,-30.71143
6038,30.8672,-4.119131,-30.71014
6041,30.8672,-4.119131,-30.71014
6043,30.86558,-4.120653,-30.70825
6045,30.86475,-4.119417,-30.70756
6048,30.86475,-4.119417,-30.70756
6050,30.8633,-4.117182,-30.70641
6052,30.8633,-4.117182,-30.70641
6055,30.86275,-4.112613,-30.70652
6057,30.86275,-4.112613,-30.70652
6060,30.86176,-4.105559,-30.70656
6063,30.86017,-4.093808,-30.70695
6065,30.86017,-4.093808,-30.70695
6067,30.8595,-4.089309,-30.70701
6070,30.8595,-4.089309,-30.70701
6072,30.85725,-4.083654,-30.70566
6074,30.85637,-4.081448,-30.70513
6077,30.85637,-4.081448,-30.70513
6079,30.85322,-4.079,-30.70224
6081,30.85322,-4.079,-30.70224
6084,30.852,-4.077895,-30.70115
6086,30.852,-4.077895,-30.70115
6088,30.84988,-4.077271,-30.69904
6091,30.84904,-4.076934,-30.69824
6093,30.84904,-4.076934,-30.69824
6095,30.84726,-4.076406,-30.6965
6098,30.84726,-4.076406,-30.6965
6100,30.84594,-4.075686,-30.69527
6103,30.84544,-4.075781,-30.69473
6105,30.84544,-4.075781,-30.69473
6108,30.84458,-4.075541,-30.69387
6110,30.84458,-4.075541,-30.69387
6112,30.84371,-4.074148,-30.69331
6115,30.84371,-4.074148,-30.69331
6117,30.84234,-4.071839,-30.69242
6119,30.84126,-4.071262,-30.69147
6122,30.84126,-4.071262,-30.69147
6124,30.84081,-4.070926,-30.69108
6126,30.84081,-4.070926,-30.69108
6129,30.83902,-4.068424,-30.68965
6131,30.83902,-4.068424,-30.68965
6133,30.83834,-4.067461,-30.68912
6136,30.83849,-4.063221,-30.68995
6138,30.83849,-4.063221,-30.68995
6140,30.8385,-4.061534,-30.69022
6144,30.8385,-4.061534,-30.69022
6146,30.84914,-4.085715,-30.69713
6148,30.85801,-4.10699,-30.70268
6151,30.85801,-4.10699,-30.70268
6153,30.87643,-4.147938,-30.71469
6155,30.87643,-4.147938,-30.71469
6158,30.89338,-4.183713,-30.72599
6160,30.89338,-4.183713,-30.72599
6162,30.90144,-4.200858,-30.73134
6165,30.91397,-4.227673,-30.73963
6167,30.91397,-4.227673,-30.73963
6169,30.91685,-4.228645,-30.74282
6172,30.91685,-4.228645,-30.74282
6174,30.91822,-4.229618,-30.7442
6176,30.90381,-4.191337,-30.73596
6179,30.90381,-4.191337,-30.73596
6181,30.89869,-4.17753,-30.73306
6183,30.89869,-4.17753,-30.73306
6187,30.89946,-4.172417,-30.73467
6189,30.89946,-4.172417,-30.73467
6191,30.90706,-4.181888,-30.7408
6193,30.91432,-4.19143,-30.74658
6196,30.91432,-4.19143,-30.74658
6198,30.92042,-4.199553,-30.75146
6200,30.92042,-4.199553,-30.75146
6203,30.92042,-4.199553,-30.75146
6205,30.92042,-4.199553,-30.75146
6207,30.92721,-4.208171,-30.75691
6210,30.939,-4.219604,-30.76694
6212,30.939,-4.219604,-30.76694
6214,30.9441,-4.223316,-30.77149
6217,30.9441,-4.223316,-30.77149
6219,30.9408,-4.19918,-30.77202
6221,30.92972,-4.158595,-30.76731
6224,30.92972,-4.158595,-30.76731
6226,30.92249,-4.120605,-30.76557
6228,30.92249,-4.120605,-30.76557
6232,30.91179,-4.06298,-30.7631
6234,30.91179,-4.06298,-30.7631
6236,30.91744,-4.05584,-30.76939
6239,30.92595,-4.0438,-30.77906
6241,30.92595,-4.0438,-30.77906
6243,30.92918,-4.038421,-30.78285
6246,30.92918,-4.038421,-30.78285
6248,30.90931,-4.014248,-30.76712
6250,30.90862,-4.011369,-30.76691
6253,30.90862,-4.011369,-30.76691
6255,30.91407,-4.016248,-30.77153
6257,30.91407,-4.016248,-30.77153
6260,30.90913,-4.010099,-30.76773
6262,30.90913,-4.010099,-30.76773
6264,30.90136,-4.001789,-30.76149
6267,30.8845,-3.992922,-30.74652
6269,30.8845,-3.992922,-30.74652
6272,30.87595,-3.991058,-30.73854
6275,30.87595,-3.991058,-30.73854
6277,30.86889,-3.9888,-30.73205
6279,30.8539,-3.972713,-30.72014
6281,30.8539,-3.972713,-30.72014
6284,30.84822,-3.965856,-30.71573
6286,30.84822,-3.965856,-30.71573
6288,30.83877,-3.953789,-30.7085
6291,30.83877,-3.953789,-30.7085
6293,30.8324,-3.939499,-30.70458
6295,30.83004,-3.931638,-30.70351
6298,30.83004,-3.931638,-30.70351
6300,30.82556,-3.92795,-30.69975
6302,30.82556,-3.92795,-30.69975
6305,30.82341,-3.930143,-30.69735
6307,30.82341,-3.930143,-30.69735
6309,30.82017,-3.929794,-30.69417
6312,30.81898,-3.928199,-30.6932
6315,30.81785,-3.926604,-30.69229
6317,30.81679,-3.925057,-30.69144
6320,30.81679,-3.925057,-30.69144
6322,30.81391,-3.919915,-30.68955
6324,30.81266,-3.917667,-30.68871
6327,30.81266,-3.917667,-30.68871
6329,30.8299,-3.968818,-30.69846
6331,30.8299,-3.968818,-30.69846
6334,30.84578,-4.016443,-30.70725
6336,30.84578,-4.016443,-30.70725
6338,30.8537,-4.04036,-30.71159
6341,30.86579,-4.077127,-30.71812
6343,30.86579,-4.077127,-30.71812
6345,30.85998,-4.071455,-30.71325
6348,30.85998,-4.071455,-30.71325
6350,30.85153,-4.064475,-30.706
6352,30.85013,-4.073811,-30.70374
6355,30.85013,-4.073811,-30.70374
6358,30.84959,-4.077559,-30.70283
6360,30.84959,-4.077559,-30.70283
6363,30.85233,-4.089118,-30.70404
6365,30.85233,-4.089118,-30.70404
6367,30.85486,-4.095912,-30.70559
6369,30.85458,-4.100739,-30.70498
6372,30.85458,-4.100739,-30.70498
6374,30.85433,-4.104701,-30.70437
6376,30.85433,-4.104701,-30.70437
6379,30.85176,-4.107038,-30.70162
6381,30.84799,-4.111041,-30.69749
6383,30.84799,-4.111041,-30.69749
6386,30.84527,-4.113089,-30.69456
6388,30.84527,-4.113089,-30.69456
6390,30.84132,-4.116563,-30.69022
6393,30.84132,-4.116563,-30.69022
6395,30.83599,-4.130337,-30.6837
6397,30.83406,-4.135407,-30.68132
6401,30.83406,-4.135407,-30.68132
6403,30.82454,-4.144679,-30.67104
6405,30.82454,-4.144679,-30.67104
6408,30.82112,-4.148221,-30.66734
6410,30.82112,-4.148221,-30.66734
6412,30.81211,-4.15638,-30.65764
6415,30.80707,-4.160713,-30.65223
6417,30.80707,-4.160713,-30.65223
6419,30.79561,-4.168096,-30.64011
6422,30.79561,-4.168096,-30.64011
6424,30.78488,-4.174012,-30.62886
6426,30.77818,-4.176217,-30.62186
6429,30.77818,-4.176217,-30.62186
6431,30.7685,-4.17978,-30.61168
6433,30.7685,-4.17978,-30.61168
6436,30.76197,-4.176358,-30.60564
6438,30.76197,-4.176358,-30.60564
6440,30.75254,-4.171807,-30.59686
6444,30.74866,-4.169741,-30.59305
6446,30.74866,-4.169741,-30.59305
6448,30.74305,-4.167109,-30.58752
6450,30.74305,-4.167109,-30.58752
6453,30.74004,-4.165981,-30.58445
6455,30.7357,-4.164665,-30.57998
6457,30.7357,-4.164665,-30.57998
6460,30.73249,-4.142835,-30.57971
6462,30.73249,-4.142835,-30.57971
6464,30.72778,-4.110136,-30.57934
6467,30.72778,-4.110136,-30.57934
6469,30.72602,-4.097729,-30.57922
6471,30.72177,-4.056275,-30.58048
6474,30.72177,-4.056275,-30.58048
6476,30.72526,-4.015028,-30.58879
6478,30.72526,-4.015028,-30.58879
6481,30.72943,-3.993559,-30.59528
6483,30.72943,-3.993559,-30.59528
6486,30.73782,-3.953987,-30.60779
6489,30.74531,-3.920015,-30.61874
6491,30.74531,-3.920015,-30.61874
6493,30.7482,-3.906053,-30.62306
6496,30.7482,-3.906053,-30.62306
6498,30.75148,-3.883176,-30.62856
6500,30.7505,-3.88141,-30.62663
6503,30.7505,-3.88141,-30.62663
6505,30.74868,-3.887007,-30.62334
6507,30.74868,-3.887007,-30.62334
6510,30.74555,-3.885696,-30.61968
6512,30.74555,-3.885696,-30.61968
6514,30.74421,-3.880805,-30.61885
6517,30.73928,-3.884285,-30.61286
6519,30.73928,-3.884285,-30.61286
6521,30.73614,-3.890229,-30.60851
6524,30.73614,-3.890229,-30.60851
6526,30.72921,-3.902843,-30.59909
6529,30.72283,-3.913716,-30.59055
6532,30.72283,-3.913716,-30.59055
6534,30.72048,-3.916817,-30.58749
6536,30.72048,-3.916817,-30.58749
6538,30.71334,-3.928548,-30.57833
6541,30.71334,-3.928548,-30.57833
6543,30.71074,-3.932086,-30.57507
6545,30.70355,-3.944119,-30.56597
6548,30.70355,-3.944119,-30.56597
6550,30.70094,-3.947742,-30.56273
6552,30.70094,-3.947742,-30.56273
6555,30.68254,-3.964374,-30.54271
6557,30.67564,-3.97764,-30.5248
6559,30.66588,-3.97764,-30.5248
6562,30.65778,-3.983543,-30.51618
6564,30.65778,-3.983543,-30.51618
6566,30.64545,-3.991499,-30.50314
6569,30.64545,-3.991499,-30.50314
6572,30.63948,-3.994736,-30.49693
6574,30.63015,-3.998852,-30.48737
6577,30.63015,-3.998852,-30.48737
6579,30.6209,-4.00795,-30.47749
6581,30.6209,-4.00795,-30.47749
6584,30.6173,-4.010929,-30.4737
6586,30.6173,-4.010929,-30.4737
6588,30.61149,-4.016004,-30.46783
6591,30.60916,-4.017612,-30.4655
6593,30.60916,-4.017612,-30.4655
6595,30.60562,-4.021023,-30.46198
6598,30.60562,-4.021023,-30.46198
6600,30.60412,-4.022094,-30.4605
6602,30.59525,-4.015321,-30.45343
6605,30.59525,-4.015321,-30.45343
6607,30.58907,-4.010539,-30.44842
6609,30.58907,-4.010539,-30.44842
6612,30.58687,-4.007071,-30.44711
6615,30.58687,-4.007071,-30.44711
6617,30.58326,-4.00174,-30.44482
6620,30.5836,-3.987572,-30.44798
6622,30.5836,-3.987572,-30.44798
6624,30.58387,-3.966399,-30.45245
6626,30.58387,-3.966399,-30.45245
6629,30.58182,-3.967781,-30.45066
6631,30.58007,-3.975375,-30.44784
6633,30.58007,-3.975375,-30.44784
6636,30.57971,-3.963386,-30.45022
6638,30.57971,-3.963386,-30.45022
6640,30.57943,-3.958591,-30.45099
6643,30.57943,-3.958591,-30.45099
6645,30.58021,-3.945708,-30.4544
6647,30.58104,-3.938257,-30.45668
6650,30.58104,-3.938257,-30.45668
6652,30.57991,-3.937461,-30.45587
6654,30.57991,-3.937461,-30.45587
6658,30.5784,-3.941686,-30.45367
6660,30.57708,-3.944864,-30.45182
6662,30.57666,-3.938555,-30.45264
6665,30.57581,-3.928299,-30.45375
6667,30.57581,-3.928299,-30.45375
6669,30.57173,-3.939499,-30.44772
6672,30.57173,-3.939499,-30.44772
6674,30.56536,-3.955671,-30.4385
6676,30.56366,-3.956809,-30.43689
6679,30.56366,-3.956809,-30.43689
6681,30.56066,-3.958492,-30.43402
6683,30.56066,-3.958492,-30.43402
6686,30.55924,-3.94923,-30.43424
6688,30.55924,-3.94923,-30.43424
6690,30.55849,-3.946055,-30.43409
6693,30.557,-3.937809,-30.43403
6695,30.557,-3.937809,-30.43403
6697,30.55624,-3.933231,-30.43407
6701,30.55624,-3.933231,-30.43407
6703,30.55419,-3.925257,-30.43345
6705,30.55301,-3.921763,-30.43292
6708,30.55301,-3.921763,-30.43292
6710,30.55091,-3.916767,-30.43172
6712,30.55091,-3.916767,-30.43172
6714,30.54909,-3.910462,-30.43098
6717,30.54909,-3.910462,-30.43098
6719,30.54785,-3.905351,-30.43066
6721,30.54575,-3.898275,-30.42987
6724,30.54575,-3.898275,-30.42987
6726,30.54486,-3.895662,-30.42943
6728,30.54486,-3.895662,-30.42943
6731,30.53779,-3.915617,-30.41868
6733,30.535,-3.923211,-30.41448
6735,30.535,-3.923211,-30.41448
6738,30.5325,-3.920165,-30.41256
6740,30.5325,-3.920165,-30.41256
6743,30.53037,-3.918766,-30.4107
6746,30.53037,-3.918766,-30.4107
6748,30.52994,-3.912815,-30.41128
6750,30.5294,-3.902593,-30.4125
6753,30.5294,-3.902593,-30.4125
6755,30.52922,-3.898174,-30.4131
6757,30.52922,-3.898174,-30.4131
6760,30.52864,-3.892041,-30.41358
6762,30.52864,-3.892041,-30.41358
6764,30.52801,-3.887812,-30.41358
6767,30.52679,-3.882066,-30.41325
6769,30.52679,-3.882066,-30.41325
6771,30.5262,-3.88025,-30.41294
6774,30.5262,-3.88025,-30.41294
6776,30.52616,-3.874543,-30.41373
6778,30.52577,-3.868979,-30.414
6781,30.52577,-3.868979,-30.414
6784,30.52552,-3.867157,-30.41397
6786,30.52552,-3.867157,-30.41397
6789,30.52356,-3.863104,-30.4125
6791,30.52356,-3.863104,-30.4125
6793,30.52218,-3.859148,-30.41149
6796,30.52164,-3.857067,-30.41113
6798,30.52164,-3.857067,-30.41113
6800,30.52066,-3.854274,-30.41037
6802,30.52066,-3.854274,-30.41037
6805,30.52314,-3.852241,-30.41288
6807,30.52655,-3.849495,-30.41629
6809,30.52655,-3.849495,-30.41629
6812,30.52408,-3.8498,-30.41367
6814,30.52408,-3.8498,-30.41367
6816,30.5231,-3.850055,-30.41262
6819,30.5231,-3.850055,-30.41262
6821,30.51987,-3.832978,-30.41187
6823,30.5175,-3.821313,-30.4112
6827,30.5175,-3.821313,-30.4112
6829,30.50557,-3.806218,-30.40145
6831,30.50557,-3.806218,-30.40145
6834,30.48741,-3.783307,-30.38662
6836,30.48213,-3.77906,-30.3824
6838,30.48213,-3.77906,-30.3824
6841,30.47348,-3.771592,-30.37545
6843,30.47348,-3.771592,-30.37545
6845,30.46902,-3.773045,-30.37158
6848,30.46902,-3.773045,-30.37158
6850,30.46702,-3.772993,-30.36987
6852,30.45354,-3.746275,-30.36059
6855,30.45354,-3.746275,-30.36059
6857,30.44811,-3.73565,-30.3568
6859,30.44811,-3.73565,-30.3568
6862,30.45343,-3.753533,-30.35969
6864,30.45343,-3.753533,-30.35969
6866,30.45502,-3.759632,-30.36046
6870,30.45889,-3.778594,-30.36251
6872,30.45889,-3.778594,-30.36251
6874,30.4607,-3.790029,-30.36323
6877,30.4607,-3.790029,-30.36323
6879,30.46416,-3.799008,-30.36534
6881,30.46862,-3.811513,-30.36792
6884,30.46862,-3.811513,-30.36792
6886,30.47362,-3.820237,-30.37113
6888,30.47362,-3.820237,-30.37113
6890,30.47517,-3.823106,-30.37209
6893,30.47517,-3.823106,-30.37209
6895,30.47932,-3.831906,-30.37469
6897,30.47932,-3.831906,-30.37469
6900,30.47932,-3.831906,-30.37469
6902,30.47932,-3.831906,-30.37469
6904,30.47932,-3.831906,-30.37469
6907,30.48156,-3.835685,-30.37599
6909,30.4821,-3.83497,-30.37645
6912,30.4821,-3.83497,-30.37645
6915,30.48254,-3.833591,-30.37681
6917,30.48254,-3.833591,-30.37681
6919,30.48276,-3.832314,-30.37715
6922,30.48276,-3.832314,-30.37715
6924,30.48271,-3.830219,-30.37732
6926,30.48417,-3.830117,-30.37875
6929,30.48417,-3.830117,-30.37875
6931,30.48456,-3.829912,-30.37915
6933,30.48456,-3.829912,-30.37915
6936,30.48563,-3.829912,-30.38023
6938,30.48563,-3.829912,-30.38023
6940,30.48668,-3.830117,-30.3813
6943,30.48754,-3.830679,-30.38213
6945,30.48754,-3.830679,-30.38213
6947,30.48856,-3.831241,-30.38312
6950,30.48856,-3.831241,-30.38312
6952,30.48884,-3.831241,-30.38343
6955,30.48906,-3.831037,-30.38374
6958,30.48906,-3.831037,-30.38374
6960,30.48903,-3.830883,-30.38374
6962,30.48903,-3.830883,-30.38374
6965,30.48883,-3.846238,-30.38129
6967,30.48883,-3.846238,-30.38129
6969,30.48487,-3.85214,-30.37663
6972,30.48175,-3.852444,-30.37362
6974,30.48175,-3.852444,-30.37362
6976,30.47927,-3.849699,-30.37175
6978,30.47927,-3.849699,-30.37175
6981,30.47931,-3.847307,-30.3722
6983,30.47657,-3.842877,-30.37035
6985,30.47657,-3.842877,-30.37035
6988,30.47434,-3.84094,-30.36856
6990,30.47434,-3.84094,-30.36856
6992,30.47099,-3.838339,-30.36582
6995,30.47099,-3.838339,-30.36582
6998,30.47292,-3.848325,-30.36627
7000,30.47353,-3.852038,-30.36632
7003,30.47353,-3.852038,-30.36632
7005,30.4809,-3.839461,-30.37564
7007,30.4809,-3.839461,-30.37564
7010,30.48359,-3.834766,-30.37906
7012,30.48636,-3.845475,-30.38025
7014,30.48636,-3.845475,-30.38025
7017,30.48986,-3.841857,-30.38436
7019,30.48986,-3.841857,-30.38436
7021,30.4919,-3.835634,-30.38736
7024,30.4919,-3.835634,-30.38736
7026,30.49504,-3.826025,-30.39199
7028,30.49652,-3.825717,-30.3935
7031,30.49652,-3.825717,-30.3935
7033,30.49883,-3.824796,-30.39596
7035,30.49883,-3.824796,-30.39596
7038,30.50424,-3.819673,-30.40252
7041,30.50424,-3.819673,-30.40252
7043,30.50625,-3.817468,-30.40499
7046,30.50574,-3.817416,-30.40466
7048,30.50574,-3.817416,-30.40466
7050,30.50562,-3.817108,-30.40464
7053,30.50232,-3.801636,-30.40344
7055,30.49966,-3.788582,-30.40253
7057,30.4975,-3.777557,-30.40185
7059,30.49235,-3.757079,-30.39932
7062,30.48811,-3.73984,-30.39729
7064,30.48811,-3.73984,-30.39729
7066,30.47854,-3.715678,-30.39064
7069,30.47854,-3.715678,-30.39064
7071,30.47357,-3.707237,-30.38663
7073,30.46612,-3.693001,-30.38083
7076,30.46612,-3.693001,-30.38083
7078,30.46255,-3.693108,-30.37718
7080,30.46255,-3.693108,-30.37718
7084,30.4571,-3.691039,-30.3719
7086,30.45248,-3.697082,-30.3664
7088,30.45248,-3.697082,-30.3664
7091,30.45072,-3.698406,-30.36444
7093,30.45072,-3.698406,-30.36444
7095,30.44748,-3.704436,-30.36044
7098,30.44748,-3.704436,-30.36044
7100,30.44622,-3.705758,-30.35901
7102,30.44366,-3.710879,-30.35572
7105,30.44366,-3.710879,-30.35572
7107,30.44263,-3.711934,-30.35454
7109,30.44263,-3.711934,-30.35454
7112,30.43243,-3.701369,-30.34631
7114,30.43243,-3.701369,-30.34631
7116,30.42851,-3.696658,-30.34323
7119,30.41978,-3.685465,-30.33637
7121,30.41978,-3.685465,-30.33637
7123,30.41154,-3.674078,-30.32995
7127,30.41154,-3.674078,-30.32995
7129,30.40705,-3.676368,-30.32519
7131,30.40013,-3.678179,-30.31808
7134,30.40013,-3.678179,-30.31808
7136,30.39874,-3.668051,-30.31811
7138,30.39874,-3.668051,-30.31811
7141,30.3964,-3.651519,-30.31807
7143,30.3964,-3.651519,-30.31807
7145,30.39248,-3.648085,-30.3146
7147,30.38995,-3.650178,-30.31174
7150,30.38995,-3.650178,-30.31174
7152,30.38621,-3.651036,-30.30786
7154,30.38621,-3.651036,-30.30786
7157,30.38354,-3.649534,-30.30545
7159,30.38317,-3.648031,-30.30525
7161,30.38317,-3.648031,-30.30525
7164,30.38223,-3.64481,-30.30472
7166,30.38223,-3.64481,-30.30472
7169,30.38423,-3.642176,-30.3071
7172,30.38423,-3.642176,-30.3071
7174,30.38474,-3.640671,-30.30783
7176,30.38668,-3.636742,-30.31031
7179,30.38668,-3.636742,-30.31031
7181,30.38792,-3.634588,-30.31184
7183,30.38792,-3.634588,-30.31184
7186,30.39145,-3.63157,-30.31577
7188,30.39343,-3.630384,-30.31792
7190,30.39343,-3.630384,-30.31792
7193,30.39818,-3.629683,-30.32281
7195,30.39818,-3.629683,-30.32281
7197,30.40259,-3.629844,-30.32729
7200,30.40259,-3.629844,-30.32729
7202,30.41866,-3.652162,-30.34005
7204,30.44258,-3.685305,-30.35899
7207,30.44258,-3.685305,-30.35899
7209,30.46811,-3.750088,-30.3776
7212,30.46811,-3.750088,-30.3776
7215,30.48207,-3.793799,-30.38728
7217,30.48207,-3.793799,-30.38728
7219,30.50726,-3.85402,-30.40572
7222,30.51867,-3.874341,-30.41445
7224,30.51867,-3.874341,-30.41445
7226,30.53614,-3.915067,-30.42476
7229,30.53614,-3.915067,-30.42476
7231,30.54303,-3.93557,-30.42748
7233,30.55653,-3.952006,-30.43597
7235,30.55653,-3.952006,-30.43597
7238,30.56306,-3.951807,-30.44117
7240,30.56306,-3.951807,-30.44117
7242,30.57367,-3.956414,-30.44829
7245,30.57367,-3.956414,-30.44829
7247,30.57797,-3.960322,-30.45063
7249,30.58916,-3.950717,-30.46124
7252,30.58916,-3.950717,-30.46124
7255,30.5957,-3.940394,-30.46859
7257,30.5957,-3.940394,-30.46859
7260,30.60985,-3.910412,-30.48608
7262,30.61723,-3.892796,-30.49564
7264,30.61723,-3.892796,-30.49564
7267,30.62406,-3.878988,-30.50411
7269,30.62406,-3.878988,-30.50411
7271,30.63967,-3.841552,-30.52493
7274,30.63967,-3.841552,-30.52493
7276,30.65301,-3.814492,-30.54216
7278,30.65921,-3.80349,-30.54997
7281,30.65921,-3.80349,-30.54997
7283,30.67042,-3.785687,-30.564
7285,30.67042,-3.785687,-30.564
7288,30.67538,-3.778542,-30.57016
7290,30.6801,-3.772734,-30.57583
7292,30.6801,-3.772734,-30.57583
7296,30.68862,-3.761506,-30.58628
7298,30.68862,-3.761506,-30.58628
7300,30.69234,-3.756193,-30.59096
7303,30.69234,-3.756193,-30.59096
7305,30.69911,-3.747947,-30.59954
7307,30.70242,-3.744968,-30.60346
7310,30.70674,-3.742771,-30.60844
7312,30.71073,-3.740992,-30.61296
7314,30.71073,-3.740992,-30.61296
7317,30.71783,-3.738269,-30.62076
7319,30.71783,-3.738269,-30.62076
7321,30.72168,-3.737693,-30.62498
7323,30.72847,-3.736645,-30.63227
7326,30.72847,-3.736645,-30.63227
7328,30.72843,-3.727884,-30.634
7330,30.72843,-3.727884,-30.634
7333,30.7295,-3.714677,-30.63771
7335,30.73227,-3.713517,-30.64095
7337,30.73227,-3.713517,-30.64095
7341,30.7372,-3.711249,-30.64662
7343,30.7372,-3.711249,-30.64662
7345,30.73699,-3.705546,-30.64763
7348,30.73699,-3.705546,-30.64763
7350,30.73763,-3.696181,-30.6502
7352,30.73705,-3.708187,-30.64819
7355,30.73705,-3.708187,-30.64819
7357,30.73689,-3.725729,-30.64593
7359,30.73689,-3.725729,-30.64593
7362,30.73687,-3.737588,-30.64424
7364,30.73745,-3.754837,-30.64238
7366,30.73745,-3.754837,-30.64238
7369,30.73828,-3.764004,-30.64199
7371,30.73828,-3.764004,-30.64199
7373,30.7401,-3.777454,-30.64201
7376,30.7401,-3.777454,-30.64201
7378,30.73852,-3.784187,-30.63965
7380,30.73676,-3.794057,-30.63675
7384,30.73676,-3.794057,-30.63675
7386,30.73508,-3.798493,-30.63466
7388,30.73508,-3.798493,-30.63466
7391,30.73321,-3.804983,-30.63215
7393,30.73321,-3.804983,-30.63215
7395,30.73129,-3.807401,-30.62999
7398,30.72893,-3.811153,-30.62725
7400,30.72893,-3.811153,-30.62725
7402,30.72691,-3.81331,-30.62508
7405,30.72691,-3.81331,-30.62508
7407,30.72438,-3.816596,-30.62229
7409,30.72196,-3.819314,-30.61976
7411,30.72196,-3.819314,-30.61976
7414,30.72075,-3.820493,-30.61853
7416,30.72075,-3.820493,-30.61853
7418,30.71679,-3.801636,-30.61771
7421,30.71679,-3.801636,-30.61771
7424,30.71438,-3.785273,-30.61792
7426,30.7085,-3.752072,-30.61727
7429,30.7085,-3.752072,-30.61727
7431,30.70528,-3.735807,-30.61662
7433,30.70528,-3.735807,-30.61662
7436,30.70271,-3.722101,-30.61619
7438,30.69336,-3.693956,-30.61128
7440,30.69336,-3.693956,-30.61128
7443,30.6899,-3.682807,-30.60958
7445,30.6899,-3.682807,-30.60958
7447,30.6823,-3.671412,-30.60384
7450,30.6823,-3.671412,-30.60384
7452,30.67662,-3.660356,-30.59988
7454,30.67425,-3.654841,-30.59834
7457,30.67425,-3.654841,-30.59834
7459,30.66681,-3.642499,-30.59275
7461,30.66681,-3.642499,-30.59275
7464,30.66236,-3.636043,-30.58927
7467,30.65872,-3.630168,-30.58652
7469,30.65872,-3.630168,-30.58652
7472,30.6491,-3.626769,-30.57796
7474,30.6491,-3.626769,-30.57796
7476,30.64091,-3.640402,-30.56863
7479,30.64091,-3.640402,-30.56863
7481,30.63705,-3.652912,-30.5635
7483,30.62556,-3.678126,-30.54996
7486,30.62556,-3.678126,-30.54996
7488,30.61865,-3.690509,-30.54223
7490,30.61865,-3.690509,-30.54223
7493,30.60597,-3.726307,-30.52491
7495,30.60597,-3.726307,-30.52491
7497,30.60013,-3.747686,-30.51577
7499,30.58807,-3.790184,-30.49688
7502,30.58807,-3.790184,-30.49688
7504,30.58205,-3.810896,-30.48744
7506,30.58205,-3.810896,-30.48744
7510,30.5561,-3.822901,-30.45903
7512,30.53884,-3.818596,-30.44211
7514,30.53884,-3.818596,-30.44211
7517,30.51176,-3.81331,-30.41537
7519,30.51176,-3.81331,-30.41537
7521,30.4943,-3.789564,-30.40158
7524,30.4943,-3.789564,-30.40158
7526,30.46748,-3.754941,-30.37986
7528,30.45712,-3.742405,-30.37124
7531,30.45712,-3.742405,-30.37124
7533,30.43911,-3.728304,-30.35507
7535,30.43911,-3.728304,-30.35507
7538,30.43126,-3.725099,-30.3476
7540,30.4179,-3.719891,-30.33488
7542,30.4179,-3.719891,-30.33488
7545,30.41089,-3.713042,-30.32863
7547,30.41089,-3.713042,-30.32863
7549,30.39859,-3.702639,-30.31753
7553,30.39859,-3.702639,-30.31753
7555,30.39071,-3.70121,-30.30983
7557,30.37743,-3.698512,-30.29688
7560,30.37743,-3.698512,-30.29688
7562,30.36893,-3.701105,-30.28791
7564,30.36893,-3.701105,-30.28791
7567,30.35459,-3.704806,-30.27293
7569,30.34689,-3.710721,-30.26459
7571,30.34689,-3.710721,-30.26459
7574,30.33301,-3.719733,-30.24975
7576,30.33301,-3.719733,-30.24975
7578,30.32668,-3.724836,-30.2426
7581,30.32668,-3.724836,-30.2426
7583,30.31565,-3.732608,-30.23034
7585,30.30144,-3.714624,-30.2181
7587,30.30144,-3.714624,-30.2181
7590,30.29518,-3.70787,-30.21259
7592,30.29518,-3.70787,-30.21259
7595,30.29498,-3.686155,-30.21377
7598,30.29498,-3.686155,-30.21377
7600,30.29381,-3.678126,-30.21314
7602,30.31715,-3.64889,-30.2374
7605,30.31715,-3.64889,-30.2374
7607,30.3249,-3.637927,-30.24552
7609,30.3249,-3.637927,-30.24552
7612,30.35417,-3.639487,-30.27184
7614,30.35417,-3.639487,-30.27184
7616,30.35417,-3.639487,-30.27184
7619,30.35417,-3.639487,-30.27184
7621,30.35417,-3.639487,-30.27184
7623,30.39375,-3.666449,-30.30507
7626,30.39375,-3.666449,-30.30507
7628,30.46649,-3.723048,-30.3653
7630,30.52694,-3.775431,-30.41473
7633,30.52694,-3.775431,-30.41473
7635,30.56791,-3.809663,-30.44867
7638,30.56791,-3.809663,-30.44867
7641,30.60239,-3.839002,-30.4771
7643,30.69074,-3.888668,-30.55321
7645,30.69074,-3.888668,-30.55321
7648,30.74035,-3.910112,-30.59683
7650,30.74035,-3.910112,-30.59683
7652,30.86547,-3.965312,-30.70844
7655,30.86547,-3.965312,-30.70844
7657,30.9362,-3.997333,-30.77188
7659,31.09299,-4.082023,-30.91119
7662,31.09299,-4.082023,-30.91119
7664,31.17516,-4.131048,-30.98369
7666,31.17516,-4.131048,-30.98369
7668,31.35761,-4.229479,-31.14686
7671,31.35761,-4.229479,-31.14686
7673,31.45221,-4.277549,-31.23212
7675,31.66862,-4.35703,-31.43215
7678,31.66862,-4.35703,-31.43215
7681,31.78669,-4.39222,-31.5427
7683,31.78669,-4.39222,-31.5427
7686,32.0485,-4.451003,-31.792
7688,32.30426,-4.500542,-32.03753
7690,32.30426,-4.500542,-32.03753
7693,32.47982,-4.52844,-32.20774
7695,32.47982,-4.52844,-32.20774
7697,32.63441,-4.556383,-32.35708
7700,32.63441,-4.556383,-32.35708
7702,32.97545,-4.653032,-32.6811
7704,33.15388,-4.714927,-32.84884
7707,33.15388,-4.714927,-32.84884
7709,33.53651,-4.842176,-33.20903
7711,33.53651,-4.842176,-33.20903
7714,33.73079,-4.905804,-33.39208
7716,34.1412,-5.05722,-33.77663
7718,34.1412,-5.05722,-33.77663
7721,34.35391,-5.141633,-33.9751
7724,34.35391,-5.141633,-33.9751
7726,34.80045,-5.318614,-34.39199
7729,34.80045,-5.318614,-34.39199
7731,35.23444,-5.492941,-34.79692
7733,35.52165,-5.606577,-35.0655
7736,35.52165,-5.606577,-35.0655
7738,35.77824,-5.709593,-35.30509
7740,35.77824,-5.709593,-35.30509
7743,36.21223,-5.887262,-35.70959
7745,36.4972,-6.005671,-35.97511
7747,36.4972,-6.005671,-35.97511
7750,37.07198,-6.246985,-36.51032
7752,37.07198,-6.246985,-36.51032
7754,37.35979,-6.369044,-36.77809
7756,37.35979,-6.369044,-36.77809
7759,37.62236,-6.481772,-37.02212
7761,38.2649,-6.811925,-37.60761
7763,38.2649,-6.811925,-37.60761
7767,38.88692,-7.119956,-38.17731
7769,38.88692,-7.119956,-38.17731
7771,39.20002,-7.271976,-38.46503
7774,39.20002,-7.271976,-38.46503
7776,39.49083,-7.413677,-38.7321
7778,40.17847,-7.762101,-39.361
7781,40.17847,-7.762101,-39.361
7783,40.47596,-7.912866,-39.63287
7785,40.47596,-7.912866,-39.63287
7788,41.19568,-8.267097,-40.29383
7790,41.51176,-8.423593,-40.5837
7792,41.51176,-8.423593,-40.5837
7795,42.17154,-8.748935,-41.18996
7797,42.17154,-8.748935,-41.18996
7799,42.51681,-8.919208,-41.50753
7802,42.51681,-8.919208,-41.50753
7804,43.2976,-9.296143,-42.22762
7806,43.63987,-9.463027,-42.54262
7810,43.63987,-9.463027,-42.54262
7812,44.41325,-9.834494,-43.25542
7814,44.41325,-9.834494,-43.25542
7817,44.76429,-10.00502,-43.57829
7819,45.52829,-10.36582,-44.28378
7821,45.52829,-10.36582,-44.28378
7824,45.86403,-10.5263,-44.59311
7826,45.86403,-10.5263,-44.59311
7828,46.58476,-10.86604,-45.25853
7831,46.58476,-10.86604,-45.25853
7833,46.94884,-11.03614,-45.59504
7835,47.76845,-11.38787,-46.36586
7838,47.76845,-11.38787,-46.36586
7840,48.15514,-11.55954,-46.72759
7842,48.15514,-11.55954,-46.72759
7844,48.99461,-11.89781,-47.52804
7847,48.99461,-11.89781,-47.52804
7849,49.37177,-12.05586,-47.88548
7852,49.7977,-12.20754,-48.30063
7855,49.7977,-12.20754,-48.30063
7857,50.58852,-12.50877,-49.0643
7859,50.58852,-12.50877,-49.0643
7862,51.39962,-12.78824,-49.86296
7864,51.76879,-12.92438,-50.22302
7866,51.76879,-12.92438,-50.22302
7869,52.60675,-13.22302,-51.04187
7871,52.60675,-13.22302,-51.04187
7873,52.98715,-13.36599,-51.41094
7876,52.98715,-13.36599,-51.41094
7878,53.72918,-13.63808,-52.13515
7880,54.46542,-13.911,-52.85395
7883,54.46542,-13.911,-52.85395
7885,54.84782,-14.04907,-53.22585
7887,54.84782,-14.04907,-53.22585
7890,55.56216,-14.31873,-53.91698
7892,55.9269,-14.43647,-54.2779
7895,55.9269,-14.43647,-54.2779
7898,56.62403,-14.6786,-54.96194
7900,56.62403,-14.6786,-54.96194
7902,56.97291,-14.80929,-55.29966
7905,56.97291,-14.80929,-55.29966
7907,57.6639,-15.07728,-55.96606
7909,58.00336,-15.20464,-56.29552
7912,58.00336,-15.20464,-56.29552
7914,58.65767,-15.45754,-56.92817
7916,58.65767,-15.45754,-56.92817
7919,58.96929,-15.57038,-57.23188
7921,59.61153,-15.8133,-57.85464
7923,59.61153,-15.8133,-57.85464
7926,59.90452,-15.91637,-58.13981
7928,59.90452,-15.91637,-58.13981
7930,60.201,-16.02433,-58.4275
7932,60.50747,-16.13921,-58.7241
7936,60.77882,-16.22346,-58.99229
7938,61.33001,-16.40939,-59.53283
7940,61.33001,-16.40939,-59.53283
7943,61.606,-16.50774,-59.80199
7945,61.606,-16.50774,-59.80199
7947,62.06373,-16.58788,-60.28821
7950,62.06373,-16.58788,-60.28821
7952,62.24495,-16.597,-60.48822
7954,62.67579,-16.6728,-60.94236
7957,62.67579,-16.6728,-60.94236
7959,62.86018,-16.72078,-61.12169
7961,62.86018,-16.72078,-61.12169
7964,63.06675,-16.78122,-61.32249
7966,63.50216,-16.91969,-61.74564
7968,63.50216,-16.91969,-61.74564
7971,63.79829,-16.93593,-62.0728
7973,63.79829,-16.93593,-62.0728
7975,63.98122,-16.96914,-62.26536
7979,63.98122,-16.96914,-62.26536
7981,64.21099,-16.94439,-62.52378
7983,64.3569,-16.95712,-62.67896
7986,64.3569,-16.95712,-62.67896
7988,64.58902,-17.02726,-62.88081
7990,64.58902,-17.02726,-62.88081
7993,64.73703,-17.07504,-63.01631
7995,64.94225,-17.12254,-63.18896
7997,64.94225,-17.12254,-63.18896
8000,65.09102,-17.16547,-63.32372
8002,65.09102,-17.16547,-63.32372
8004,65.24543,-17.17471,-63.45965
8007,65.24543,-17.17471,-63.45965
8009,65.35778,-17.19709,-63.56355
8011,65.47518,-17.17104,-63.67661
8014,65.47518,-17.17104,-63.67661
8016,65.58397,-17.18301,-63.78177
8018,65.58397,-17.18301,-63.78177
8020,65.65903,-17.12464,-63.86403
8024,65.73559,-17.11876,-63.94172
8026,65.73559,-17.11876,-63.94172
8028,65.78134,-17.0337,-63.99611
8031,65.78134,-17.0337,-63.99611
8033,65.9322,-17.0128,-64.14925
8035,65.9322,-17.0128,-64.14925
8038,65.9375,-16.96639,-64.16154
8040,66.05241,-16.92685,-64.28399
8042,66.05241,-16.92685,-64.28399
8045,66.04561,-16.86983,-64.28893
8047,66.04561,-16.86983,-64.28893
8049,66.11461,-16.80559,-64.37347
8052,66.11461,-16.80559,-64.37347
8054,66.08358,-16.68916,-64.38763
8056,66.12379,-16.53674,-64.49297
8059,66.12379,-16.53674,-64.49297
8061,66.10499,-16.4821,-64.48171
8064,66.10499,-16.4821,-64.48171
8067,66.15581,-16.41726,-64.54285
8069,66.13711,-16.37612,-64.52538
8071,66.13711,-16.37612,-64.52538
8074,66.17686,-16.32798,-64.56628
8076,66.17686,-16.32798,-64.56628
8078,66.14462,-16.27083,-64.54305
8081,66.14462,-16.27083,-64.54305
8083,66.14841,-16.22883,-64.554
8085,66.14962,-16.14147,-64.57234
8088,66.14962,-16.14147,-64.57234
8090,66.14665,-16.09764,-64.57863
8092,66.14665,-16.06444,-64.60464
8095,66.14406,-16.00128,-64.59916
8097,66.14366,-15.95144,-64.61153
8099,66.14366,-15.95144,-64.61153
8102,66.13596,-15.84697,-64.63042
8104,66.13596,-15.84697,-64.63042
8107,66.151,-15.75241,-64.67019
8109,66.151,-15.75241,-64.67019
8112,66.14634,-15.70976,-64.67257
8114,66.17964,-15.64719,-64.7173
8116,66.17964,-15.64719,-64.7173
8119,66.1919,-15.61382,-64.73524
8121,66.1919,-15.61382,-64.73524
8123,66.21919,-15.58629,-64.76768
8126,66.21919,-15.58629,-64.76768
8128,66.27266,-15.53608,-64.83154
8130,66.29901,-15.51322,-64.86301
8133,66.29901,-15.51322,-64.86301
8135,66.35608,-15.46507,-64.93224
8137,66.35608,-15.46507,-64.93224
8140,66.38385,-15.44087,-64.9665
8142,66.43997,-15.39655,-65.03267
8144,66.43997,-15.39655,-65.03267
8147,66.50831,-15.35811,-65.10889
8150,66.50831,-15.35811,-65.10889
8152,66.5319,-15.34172,-65.13525
8155,66.5319,-15.34172,-65.13525
8157,66.5976,-15.31435,-65.20643
8159,66.62742,-15.30902,-65.23772
8162,66.62742,-15.30902,-65.23772
8164,66.70392,-15.29776,-65.31784
8166,66.70392,-15.29776,-65.31784
8169,66.74882,-15.29186,-65.36482
8171,66.83508,-15.31423,-65.44186
8173,66.83508,-15.31423,-65.44186
8176,66.88441,-15.32099,-65.48844
8178,66.88441,-15.32099,-65.48844
8180,67.01287,-15.38896,-65.6012
8183,67.01287,-15.38896,-65.6012
8185,67.07432,-15.41332,-65.65723
8187,67.19296,-15.47736,-65.75642
8190,67.19296,-15.47736,-65.75642
8193,67.30196,-15.53496,-65.84653
8195,67.30196,-15.53496,-65.84653
8197,67.3532,-15.56311,-65.88806
8200,67.46072,-15.63118,-65.97116
8202,67.46072,-15.63118,-65.97116
8204,67.5134,-15.66826,-66.01025
8207,67.5134,-15.66826,-66.01025
8209,67.62121,-15.74487,-66.09102
8211,67.62121,-15.74487,-66.09102
8214,67.67755,-15.78355,-66.13407
8216,67.79114,-15.86559,-66.21899
8218,67.79114,-15.86559,-66.21899
8221,67.84865,-15.90757,-66.26168
8223,67.84865,-15.90757,-66.26168
8225,67.96629,-15.98727,-66.35204
8228,67.96629,-15.98727,-66.35204
8230,68.02625,-16.02508,-66.39935
8232,68.14264,-16.08754,-66.49497
8236,68.14264,-16.08754,-66.49497
8238,68.19312,-16.12705,-66.53524
8240,68.24731,-16.16279,-66.58002
8243,68.303,-16.19506,-66.62708
8245,68.39751,-16.28556,-66.69939
8247,68.39751,-16.28556,-66.69939
8250,68.44575,-16.32289,-66.73826
8252,68.44575,-16.32289,-66.73826
8254,68.52751,-16.41059,-66.79429
8257,68.52751,-16.41059,-66.79429
8259,68.57253,-16.44805,-66.82826
8261,68.65498,-16.54362,-66.87592
8264,68.65498,-16.54362,-66.87592
8266,68.70061,-16.58488,-66.90683
8268,68.70061,-16.58488,-66.90683
8271,68.78462,-16.69238,-66.94447
8273,68.86446,-16.78316,-66.98406
8275,68.86446,-16.78316,-66.98406
8278,68.90498,-16.82576,-67.00529
8281,68.90498,-16.82576,-67.00529
8283,68.94856,-16.86583,-67.03127
8285,68.94856,-16.86583,-67.03127
8288,69.0186,-16.96699,-67.06217
8290,69.05891,-17.01215,-67.08523
8292,69.05891,-17.01215,-67.08523
8295,69.10519,-17.0939,-67.09837
8297,69.10519,-17.0939,-67.09837
8299,69.13447,-17.1311,-67.11285
8302,69.13447,-17.1311,-67.11285
8304,69.16322,-17.19651,-67.11156
8306,69.18749,-17.22922,-67.12155
8309,69.18749,-17.22922,-67.12155
8311,69.20184,-17.29019,-67.10378
8313,69.20184,-17.29019,-67.10378
8316,69.21799,-17.31992,-67.1053
8318,69.23606,-17.375,-67.09496
8321,69.23606,-17.375,-67.09496
8324,69.24152,-17.40146,-67.0864
8326,69.24152,-17.40146,-67.0864
8328,69.23474,-17.443,-67.05566
8331,69.23474,-17.443,-67.05566
8333,69.22677,-17.46048,-67.03692
8335,69.17464,-17.47334,-66.96778
8338,69.17464,-17.47334,-66.96778
8340,69.16336,-17.48469,-66.94746
8342,69.16336,-17.48469,-66.94746
8345,69.13122,-17.50155,-66.89822
8347,69.11342,-17.50887,-66.87195
8349,69.11342,-17.50887,-66.87195
8352,69.10368,-17.51934,-66.85327
8354,69.10368,-17.51934,-66.85327
8356,69.10368,-17.51934,-66.85327
8359,69.10368,-17.51934,-66.85327
8361,69.05257,-17.52835,-66.78481
8364,69.01509,-17.54057,-66.73085
8366,69.01509,-17.54057,-66.73085
8369,68.94209,-17.56875,-66.6246
8371,68.94209,-17.56875,-66.6246
8373,68.90743,-17.5843,-66.57335
8376,68.82961,-17.60218,-66.46626
8378,68.82961,-17.60218,-66.46626
8380,68.78917,-17.60746,-66.41232
8383,68.78917,-17.60746,-66.41232
8385,68.69692,-17.61282,-66.29514
8387,68.69692,-17.61282,-66.29514
8390,68.64819,-17.61415,-66.23469
