time,turnedAngle,pitchAngle,yawAngle
1264244,0,0,0
264237,0,0,0
264239,0,0,0
264241,0,0,0
264244,0,0,0
26246,0,0,0
264239,0,0,0
264241,0,0,0
264244,0,0,0
26246,0,0,0
264239,0,0,0
264241,0,0,0
264244,0,0,0
26246,0.5609285,0.5595313,0.03956468
0,0.5623221,0.5612772,0.03956468
1,0.5637122,0.5623221,0.03426402
2,0.5637122,0.5623221,0.03426402
4,0.5650989,0.5640592,0.03426402
5,0.5650989,0.5640592,0.03426402
7,0.5657911,0.564406,0.03426402
8,0.5657911,0.564406,0.03426402
10,0.5661368,0.5647526,0.03426402
12,0.5661368,0.5647526,0.03426402
14,0.5650989,0.5640592,0.02797646
16,0.5650989,0.5640592,0.02797646
19,0.5650989,0.5640592,0.03956468
21,0.5650989,0.5640592,0.03956468
23,0.5654452,0.5647526,0.02797646
25,0.5654452,0.5647526,0.02797646
27,0.564406,0.5637122,0.02797646
29,0.564406,0.5637122,0.02797646
32,0.5630175,0.5623221,0
34,0.5616257,0.5612772,0
36,0.5616257,0.5612772,0
38,0.5602303,0.5598809,0.02797646
40,0.5602303,0.5598809,0.02797646
43,0.5591815,0.5591815,0.02797646
46,0.5591815,0.5591815,0.02797646
48,0.5595313,0.5588315,0
50,0.5595313,0.5588315,0
52,0.5602303,0.5598809,0
54,0.5602303,0.5598809,0
56,0.5598809,0.5605795,0
58,0.5584812,0.5591815,0
61,0.5584812,0.5591815,0
63,0.5574291,0.55778,0
65,0.5574291,0.55778,0
67,0.5570779,0.55778,0
69,0.5570779,0.55778,0
71,0.5581307,0.5581307,0
74,0.5581307,0.5581307,0
76,0.5581307,0.5581307,0
78,0.5581307,0.5581307,0
80,0.555319,0.5556712,0
82,0.555319,0.5556712,0
84,0.555319,0.555319,0
88,0.555319,0.5549665,0
90,0.555319,0.5549665,0
92,0.5549665,0.5546138,0
94,0.5549665,0.5546138,0
96,0.5549665,0.5546138,0
98,0.5549665,0.5546138,0
100,0.5560232,0.555319,0
103,0.5560232,0.555319,0
105,0.5567266,0.556375,0
107,0.5567266,0.556375,0
109,0.5591815,0.5591815,0
112,0.5605795,0.5605795,0
114,0.5605795,0.5605795,0
116,0.5619739,0.5619739,0
118,0.5619739,0.5619739,0
121,0.5630175,0.5630175,0
123,0.5630175,0.5630175,0
125,0.5654452,0.5661368,0
128,0.5664824,0.5671728,0
131,0.5664824,0.5671728,0
133,0.5675176,0.5675176,0
135,0.5675176,0.5675176,0
137,0.5702693,0.5702693,0
140,0.5702693,0.5702693,0
142,0.5743721,0.5743721,0
144,0.5743721,0.5743721,0
146,0.5760729,0.5757331,0
149,0.577091,0.577091,0
151,0.577091,0.577091,0
153,0.5797972,0.5794597,0.02797646
155,0.5797972,0.5794597,0.02797646
158,0.5801346,0.5804718,0
160,0.5801346,0.5804718,0
162,0.628073,0.6283845,0
164,0.628073,0.6283845,0
166,0.646193,0.6464956,0
169,0.6734757,0.6740565,0
172,0.6734757,0.6740565,0
174,0.6968932,0.697174,0
176,0.6968932,0.697174,0
179,0.7404569,0.7407211,0
181,0.7404569,0.7407211,0
183,0.7571809,0.7574393,-0.01978234
185,0.7732905,0.7735435,-0.01978234
188,0.7732905,0.7735435,-0.01978234
190,0.798929,0.798929,-0.02797646
192,0.798929,0.798929,-0.02797646
194,0.7722777,0.7727842,-0.01978234
197,0.7722777,0.7727842,-0.01978234
199,0.7509531,0.751474,0
201,0.7509531,0.751474,0
203,0.7597608,0.7600183,0
206,0.7633579,0.7636142,0
208,0.7633579,0.7636142,0
210,0.7735435,0.7740492,0
212,0.7735435,0.7740492,0
216,0.7903101,0.7908052,0
218,0.7903101,0.7908052,0
220,0.798439,0.798929,-0.01978234
222,0.798439,0.798929,-0.01978234
225,0.8060005,0.8062432,-0.01978234
227,0.7922885,0.7930291,-0.01978234
229,0.7922885,0.7930291,-0.01978234
231,0.7727842,0.7735435,0
233,0.7727842,0.7735435,0
236,0.7783349,0.7793398,0
238,0.7783349,0.7793398,0
240,0.7833468,0.7840959,0
242,0.8045425,0.8050289,0
245,0.8045425,0.8050289,0
247,0.812529,0.8132511,0
249,0.812529,0.8132511,0
251,0.7853427,0.7860898,0
254,0.7853427,0.7860898,0
257,0.7633579,0.7638705,0
259,0.7633579,0.7638705,0
261,0.7154584,0.7154584,0
264,0.6906884,0.690405,0.01978234
266,0.6906884,0.690405,0.01978234
268,0.6673463,0.667053,0.02797646
270,0.6673463,0.667053,0.02797646
273,0.6314908,0.6305605,0.03956468
275,0.6314908,0.6305605,0.03956468
277,0.6158028,0.6145305,0.03956468
279,0.6158028,0.6145305,0.03956468
282,0.6019843,0.6003569,0.04423466
284,0.5821548,0.5797972,0.05233916
286,0.5821548,0.5797972,0.05233916
288,0.575053,0.5723243,0.05595291
291,0.575053,0.5723243,0.05595291
293,0.5664824,0.5640592,0.05595291
295,0.5664824,0.5640592,0.05595291
297,0.5521386,0.5492961,0.05934703
300,0.5478694,0.5446455,0.06255726
303,0.5478694,0.5446455,0.06255726
305,0.5428462,0.5395923,0.06255726
307,0.5428462,0.5395923,0.06255726
309,0.5388666,0.5355885,0.06255726
312,0.5388666,0.5355885,0.06255726
314,0.5326577,0.5293413,0.06255726
316,0.5326577,0.5293413,0.06255726
318,0.5366834,0.533392,0.05934703
321,0.5388666,0.5359538,0.05934703
323,0.5388666,0.5359538,0.05934703
325,0.5464389,0.5442861,0.05233916
327,0.5464389,0.5442861,0.05233916
330,0.5510744,0.5485832,0.05233916
332,0.5510744,0.5485832,0.05233916
334,0.556375,0.5542608,0.04845664
336,0.5598809,0.5581307,0.04423466
339,0.5598809,0.5581307,0.04423466
342,0.5630175,0.5609285,0.04423466
344,0.5630175,0.5609285,0.04423466
346,0.5671728,0.5654452,0.03956468
349,0.5671728,0.5654452,0.03956468
351,0.5719823,0.5699261,0.04423466
353,0.5719823,0.5699261,0.04423466
355,0.5753932,0.5733491,0.04423466
357,0.57743,0.5757331,0.04423466
360,0.57743,0.5757331,0.04423466
362,0.5821548,0.5794597,0.04845664
364,0.5821548,0.5794597,0.04845664
366,0.5908293,0.5875081,0.05595291
369,0.5908293,0.5875081,0.05595291
371,0.5947903,0.5911604,0.05934703
373,0.5947903,0.5911604,0.05934703
375,0.5967609,0.5934729,0.06255726
378,0.598071,0.5941319,0.06255726
380,0.598071,0.5941319,0.06255726
382,0.5990517,0.5947903,0.06852804
385,0.5990517,0.5947903,0.06852804
388,0.5961047,0.5908293,0.07661668
390,0.5961047,0.5908293,0.07661668
392,0.5951191,0.5891711,0.08156469
394,0.5878411,0.5808088,0.09065409
397,0.5878411,0.5808088,0.09065409
399,0.5760729,0.5661368,0.1083524
401,0.5760729,0.5661368,0.1083524
403,0.5709552,0.5591815,0.1153499
406,0.5709552,0.5591815,0.1153499
408,0.5668277,0.5532007,0.1219466
410,0.5668277,0.5532007,0.1219466
412,0.5616257,0.5464389,0.1282043
415,0.5574291,0.5406791,0.1356209
417,0.5574291,0.5406791,0.1356209
419,0.5517841,0.5311863,0.1467098
421,0.5517841,0.5311863,0.1467098
423,0.5492961,0.5274898,0.1506579
427,0.5492961,0.5274898,0.1506579
429,0.5489398,0.5256317,0.1557664
431,0.5489398,0.5256317,0.1557664
433,0.5467969,0.5207698,0.1678588
436,0.5457222,0.5177552,0.1724585
438,0.5457222,0.5177552,0.1724585
440,0.5450047,0.5154827,0.1780411
442,0.5450047,0.5154827,0.1780411
445,0.5478694,0.5162413,0.1855749
447,0.5478694,0.5162413,0.1855749
449,0.5507192,0.5166202,0.1907741
451,0.5619739,0.5230194,0.2046302
454,0.5619739,0.5230194,0.2046302
456,0.5657911,0.5248867,0.2102893
458,0.5657911,0.5248867,0.2102893
460,0.5947903,0.5570779,0.2074791
463,0.5947903,0.5570779,0.2074791
465,0.6391903,0.6055493,0.2046302
467,0.6391903,0.6055493,0.2046302
470,0.6391903,0.6055493,0.2046302
473,0.6391903,0.6055493,0.2046302
475,0.6391903,0.6055493,0.2046302
477,0.6443735,0.608772,0.2102893
479,0.6443735,0.608772,0.2102893
482,0.644677,0.6061952,0.2176059
484,0.644677,0.6061952,0.2176059
486,0.6413296,0.5997046,0.2264194
488,0.6413296,0.5997046,0.2264194
490,0.6376578,0.590498,0.2398483
493,0.6348901,0.5851721,0.2462884
495,0.6348901,0.5851721,0.2462884
497,0.6333472,0.5808088,0.2517883
499,0.6333472,0.5808088,0.2517883
502,0.6308707,0.5757331,0.2579304
504,0.6308707,0.5757331,0.2579304
506,0.628073,0.5678623,0.2676108
508,0.6271377,0.564406,0.2733977
512,0.6271377,0.564406,0.2733977
514,0.6268256,0.5612772,0.2783625
516,0.6268256,0.5612772,0.2783625
518,0.6262009,0.5570779,0.2859903
521,0.6262009,0.5570779,0.2859903
523,0.6265134,0.5549665,0.2900664
525,0.6265134,0.5549665,0.2900664
527,0.6255757,0.5514293,0.2947506
530,0.6255757,0.5492961,0.2973941
532,0.6255757,0.5492961,0.2973941
534,0.6236961,0.5439265,0.3039024
536,0.6236961,0.5439265,0.3039024
539,0.6224399,0.5410409,0.3071049
541,0.6224399,0.5410409,0.3071049
543,0.6218109,0.5388666,0.3083766
545,0.6196041,0.5348573,0.311533
548,0.6196041,0.5348573,0.311533
550,0.6205508,0.5344914,0.3127867
552,0.6205508,0.5344914,0.3127867
555,0.6224399,0.5370479,0.3127867
557,0.6224399,0.5370479,0.3127867
560,0.6218109,0.5374122,0.3109043
562,0.6218109,0.5374122,0.3109043
564,0.6218109,0.5374122,0.3109043
566,0.6196041,0.5363187,0.3083766
569,0.6196041,0.5363187,0.3083766
571,0.6183397,0.5352231,0.3077414
573,0.6183397,0.5352231,0.3077414
575,0.6170725,0.5344914,0.3077414
578,0.6170725,0.5344914,0.3077414
580,0.6158028,0.5337587,0.3071049
582,0.615167,0.5326577,0.3064671
584,0.6211812,0.5395923,0.3058279
587,0.6262009,0.5450047,0.3058279
589,0.6262009,0.5450047,0.3058279
591,0.6299395,0.5503638,0.3045456
593,0.6299395,0.5503638,0.3045456
596,0.6286958,0.5492961,0.3051875
599,0.6286958,0.5492961,0.3051875
601,0.6258884,0.5450047,0.3064671
603,0.6233823,0.5424856,0.3064671
606,0.6233823,0.5424856,0.3064671
608,0.6221254,0.5399548,0.3071049
610,0.6221254,0.5399548,0.3071049
612,0.6192883,0.5363187,0.3077414
615,0.6192883,0.5363187,0.3077414
617,0.6170725,0.5337587,0.3077414
619,0.6170725,0.5337587,0.3077414
621,0.6205508,0.5377761,0.3083766
623,0.6296288,0.5482264,0.3090104
626,0.6296288,0.5482264,0.3090104
628,0.6342734,0.5539077,0.3083766
630,0.6342734,0.5539077,0.3083766
632,0.6382713,0.5584812,0.3090104
635,0.6382713,0.5584812,0.3090104
637,0.6434618,0.564406,0.3090104
640,0.6434618,0.564406,0.3090104
642,0.6480073,0.569239,0.3090104
645,0.6708556,0.5977437,0.3045456
647,0.6708556,0.5977437,0.3045456
649,0.6906884,0.6221254,0.2993615
651,0.6906884,0.6221254,0.2993615
654,0.7074825,0.6428534,0.2954137
656,0.7074825,0.6428534,0.2954137
658,0.7055438,0.6379647,0.3000144
660,0.7179157,0.65342,0.2967354
663,0.7179157,0.65342,0.2967354
665,0.7292733,0.6673463,0.2934199
667,0.7292733,0.6673463,0.2934199
669,0.7472962,0.6895542,0.2866737
672,0.7472962,0.6895542,0.2866737
674,0.7631016,0.7088641,0.2818553
676,0.7631016,0.7088641,0.2818553
678,0.7465102,0.6878495,0.289391
681,0.7412493,0.6807005,0.2927522
684,0.7412493,0.6807005,0.2927522
686,0.7517344,0.6937978,0.2887141
688,0.7517344,0.6937978,0.2887141
690,0.7610474,0.7049889,0.2853053
693,0.7610474,0.7049889,0.2853053
695,0.7765731,0.7236168,0.2797648
697,0.7765731,0.7236168,0.2797648
699,0.8013745,0.7535542,0.2712421
702,0.8130105,0.7677034,0.2676108
704,0.8130105,0.7677034,0.2676108
706,0.8232948,0.7798419,0.2639296
708,0.8232948,0.7798419,0.2639296
711,0.7950006,0.7470343,0.2712421
713,0.7950006,0.7470343,0.2712421
715,0.7720242,0.7203645,0.2776587
717,0.7666831,0.7149112,0.2762456
720,0.7666831,0.7149112,0.2762456
722,0.7625886,0.7107937,0.2755364
724,0.7625886,0.7107937,0.2755364
727,0.7441474,0.6887025,0.2811602
730,0.7441474,0.6887025,0.2811602
732,0.7168246,0.6549156,0.2900664
734,0.7168246,0.6549156,0.2900664
736,0.6921035,0.6246366,0.2967354
739,0.6717301,0.5993783,0.302612
741,0.6717301,0.5993783,0.302612
743,0.6815624,0.6129363,0.2960753
745,0.6815624,0.6129363,0.2960753
748,0.6898379,0.6243232,0.2920831
750,0.6898379,0.6243232,0.2920831
752,0.6858553,0.6196041,0.2927522
754,0.6824232,0.615485,0.2934199
756,0.6824232,0.615485,0.2934199
759,0.6792617,0.6119779,0.2940859
761,0.6792617,0.6119779,0.2940859
763,0.6926687,0.6299395,0.2866737
765,0.6926687,0.6299395,0.2866737
769,0.7035998,0.6449805,0.2804634
771,0.7035998,0.6449805,0.2804634
773,0.7238871,0.6705639,0.2712421
775,0.7582139,0.7132671,0.2556444
778,0.7582139,0.7132671,0.2556444
780,0.7727842,0.7311491,0.2486604
782,0.7727842,0.7311491,0.2486604
784,0.7727842,0.7311491,0.2486604
787,0.7727842,0.7311491,0.2486604
789,0.7868362,0.7483428,0.2430897
791,0.7868362,0.7483428,0.2430897
793,0.7828471,0.7436213,0.2430897
796,0.7828471,0.7436213,0.2430897
798,0.7828471,0.7436213,0.2430897
800,0.7694854,0.7279305,0.2478722
802,0.7694854,0.7279305,0.2478722
805,0.7760689,0.7359507,0.2446942
807,0.7760689,0.7359507,0.2446942
809,0.7760689,0.7359507,0.2446942
812,0.7942618,0.7569224,0.2390311
814,0.7942618,0.7569224,0.2390311
817,0.8033255,0.7669383,0.2365626
819,0.8033255,0.7669383,0.2365626
821,0.8103587,0.7753122,0.2349025
823,0.8103587,0.7753122,0.2349025
826,0.8192443,0.7850935,0.23239
828,0.8192443,0.7850935,0.23239
830,0.826142,0.7932757,0.2306999
832,0.8320423,0.7996635,0.2281412
835,0.8320423,0.7996635,0.2281412
837,0.8369665,0.8050289,0.2281412
839,0.8369665,0.8050289,0.2281412
841,0.8420942,0.8106001,0.2264194
844,0.8420942,0.8106001,0.2264194
846,0.8464977,0.8151737,0.2255535
848,0.8464977,0.8151737,0.2255535
850,0.8499581,0.8192443,0.2255535
854,0.8240075,0.7895671,0.2349025
856,0.8240075,0.7895671,0.2349025
858,0.8030819,0.7646385,0.2430897
860,0.8030819,0.7646385,0.2430897
863,0.8028382,0.7643827,0.2446942
865,0.8028382,0.7643827,0.2446942
867,0.8033255,0.7643827,0.2454926
869,0.8038125,0.7648944,0.2462884
872,0.8038125,0.7648944,0.2462884
874,0.8127698,0.7748073,0.2446942
876,0.8127698,0.7748073,0.2446942
878,0.8199606,0.7828471,0.2430897
880,0.8199606,0.7828471,0.2430897
883,0.826142,0.7893192,0.2414744
885,0.826142,0.7893192,0.2414744
887,0.8296872,0.7937689,0.2406627
889,0.8325126,0.7969672,0.2398483
892,0.8325126,0.7969672,0.2398483
894,0.8343908,0.7991739,0.2390311
897,0.8343908,0.7991739,0.2390311
899,0.8343908,0.7991739,0.2390311
902,0.8357967,0.8006416,0.2382111
904,0.8357967,0.8006416,0.2382111
906,0.8357967,0.8006416,0.2382111
908,0.8348597,0.7999081,0.2390311
911,0.8055148,0.7659171,0.2486604
913,0.8055148,0.7659171,0.2486604
915,0.7810954,0.7372789,0.2579304
917,0.7810954,0.7372789,0.2579304
920,0.7813459,0.7370135,0.2586879
922,0.7813459,0.7370135,0.2586879
924,0.7813459,0.7364823,0.2601963
926,0.7553698,0.7047113,0.2705197
929,0.7553698,0.7047113,0.2705197
931,0.733287,0.6778198,0.2790645
933,0.733287,0.6778198,0.2790645
935,0.7151849,0.6546168,0.2866737
939,0.7151849,0.6546168,0.2866737
941,0.7002546,0.6311808,0.302612
943,0.7002546,0.6311808,0.302612
945,0.6878495,0.6100564,0.3165179
947,0.6872803,0.6042554,0.3262592
950,0.6872803,0.6042554,0.3262592
952,0.6858553,0.598071,0.3345502
954,0.6858553,0.598071,0.3345502
956,0.6818494,0.5868416,0.3460502
959,0.6818494,0.5868416,0.3460502
961,0.680413,0.577091,0.3588198
963,0.680413,0.577091,0.3588198
965,0.6821364,0.5767518,0.3626169
968,0.7041557,0.6058724,0.3577275
970,0.7041557,0.6058724,0.3577275
972,0.7228051,0.6293179,0.3538778
974,0.7228051,0.6293179,0.3538778
977,0.7666831,0.6852845,0.3432113
979,0.7666831,0.6852845,0.3432113
982,0.7835966,0.7060983,0.339197
984,0.800886,0.7273927,0.3339648
987,0.800886,0.7273927,0.3339648
989,0.8151737,0.7451985,0.3304307
991,0.8151737,0.7451985,0.3304307
993,0.8383681,0.7732905,0.3232465
996,0.8383681,0.7732905,0.3232465
998,0.8476528,0.7848442,0.3195939
1000,0.8476528,0.7848442,0.3195939
1002,0.839068,0.7750598,0.3208161
1005,0.8320423,0.7666831,0.3220336
1007,0.8320423,0.7666831,0.3220336
1009,0.8263788,0.7600183,0.3238513
1012,0.8263788,0.7600183,0.3238513
1014,0.7893192,0.7179157,0.3274564
1016,0.7753122,0.7038778,0.324455
1019,0.7753122,0.7038778,0.324455
1021,0.7633579,0.6918207,0.3214254
1024,0.7633579,0.6918207,0.3214254
1027,0.7651502,0.6996954,0.3090104
1029,0.7651502,0.6996954,0.3090104
1031,0.7750598,0.7140896,0.3006659
1034,0.7927822,0.7380747,0.2887141
1036,0.7927822,0.7380747,0.2887141
1038,0.8081825,0.7579558,0.2804634
1041,0.8081825,0.7579558,0.2804634
1043,0.8296872,0.7855918,0.2661444
1045,0.8372003,0.7954926,0.2594432
1048,0.8372003,0.7954926,0.2594432
1050,0.8120472,0.7674484,0.2646699
1052,0.8120472,0.7674484,0.2646699
1054,0.7912999,0.7441474,0.268341
1057,0.7912999,0.7441474,0.268341
1059,0.7745547,0.7249676,0.2712421
1061,0.7790887,0.7327532,0.2646699
1064,0.7790887,0.7327532,0.2646699
1067,0.7587299,0.7088641,0.2690692
1069,0.7587299,0.7088641,0.2690692
1072,0.7412493,0.6889865,0.2719625
1074,0.7383398,0.6867107,0.2697954
1076,0.7383398,0.6867107,0.2697954
1079,0.7472962,0.6985759,0.2646699
1081,0.7472962,0.6985759,0.2646699
1083,0.7548515,0.707759,0.2609472
1086,0.7548515,0.707759,0.2609472
1088,0.7858408,0.7451985,0.2486604
1090,0.7740492,0.7316842,0.2517883
1093,0.7740492,0.7316842,0.2517883
1095,0.7646385,0.7206361,0.2548778
1097,0.7646385,0.7206361,0.2548778
1100,0.7564052,0.711069,0.2571706
1102,0.7564052,0.711069,0.2571706
1104,0.7788376,0.7375443,0.249446
1107,0.7873334,0.747558,0.2454926
1110,0.7873334,0.747558,0.2454926
1112,0.7750598,0.7330202,0.25101
1115,0.7750598,0.7330202,0.25101
1117,0.7651502,0.721179,0.254109
1119,0.7825971,0.741777,0.2478722
1122,0.7825971,0.741777,0.2478722
1124,0.7890712,0.749649,0.2454926
1126,0.7890712,0.749649,0.2454926
1129,0.7974581,0.7595032,0.2422834
1131,0.7974581,0.7595032,0.2422834
1133,0.81781,0.7833468,0.234068
1136,0.8287433,0.7959845,0.2306999
1138,0.8287433,0.7959845,0.2306999
1140,0.8379012,0.8062432,0.2272819
1142,0.8379012,0.8062432,0.2272819
1145,0.8492672,0.8194832,0.2229358
1147,0.8409316,0.8093922,0.2281412
1149,0.8409316,0.8093922,0.2281412
1153,0.8259051,0.7917944,0.234068
1155,0.8259051,0.7917944,0.234068
1157,0.8132511,0.7770769,0.2390311
1160,0.8132511,0.7770769,0.2390311
1162,0.8146936,0.7788376,0.2382111
1164,0.8146936,0.7790887,0.2373883
1167,0.8146936,0.7790887,0.2373883
1169,0.8199606,0.7850935,0.235734
1171,0.8199606,0.7850935,0.235734
1174,0.8089085,0.7720242,0.2398483
1176,0.8089085,0.7720242,0.2398483
1178,0.7962303,0.7571809,0.2454926
1181,0.7855918,0.7444103,0.2502292
1183,0.7855918,0.7444103,0.2502292
1185,0.7972127,0.7574393,0.2478722
1188,0.7972127,0.7574393,0.2478722
1190,0.8006416,0.7615615,0.2470816
1192,0.7910526,0.7488656,0.2533378
1196,0.7910526,0.7488656,0.2533378
1198,0.7755645,0.7281993,0.2654082
1200,0.7755645,0.7281993,0.2654082
1203,0.7880787,0.7430948,0.261696
1205,0.7880787,0.7430948,0.261696
1207,0.7981939,0.7548515,0.2586879
1210,0.8161334,0.7758168,0.2533378
1212,0.8161334,0.7758168,0.2533378
1214,0.8423266,0.8060005,0.2438933
1217,0.8423266,0.8060005,0.2438933
1219,0.8383681,0.8021067,0.2430897
1221,0.8348597,0.798929,0.2422834
1224,0.8348597,0.798929,0.2422834
1226,0.8256681,0.7890712,0.2438933
1228,0.8256681,0.7890712,0.2438933
1230,0.81781,0.7805943,0.2446942
1233,0.81781,0.7805943,0.2446942
1235,0.8108415,0.7730374,0.2462884
1238,0.8030819,0.7646385,0.2486604
1241,0.8030819,0.7646385,0.2486604
1243,0.8030819,0.7646385,0.2486604
1245,0.8030819,0.7646385,0.2486604
1248,0.7945082,0.7551107,0.249446
1250,0.7800927,0.7372789,0.2571706
1252,0.7800927,0.7372789,0.2571706
1255,0.7677034,0.7219925,0.2624426
1257,0.7677034,0.7219925,0.2624426
1259,0.7576976,0.7091401,0.2676108
1262,0.7576976,0.7091401,0.2676108
1264,0.7730374,0.7271236,0.2631872
1266,0.7785863,0.7324861,0.2631872
1269,0.7785863,0.7324861,0.2631872
1271,0.772531,0.7252374,0.2668786
1273,0.772531,0.7252374,0.2668786
1276,0.7689767,0.7214502,0.2668786
1278,0.7689767,0.7214502,0.2668786
1281,0.7661725,0.7179157,0.2668786
1284,0.7631016,0.7154584,0.2661444
1286,0.7631016,0.7154584,0.2661444
1288,0.7628451,0.7154584,0.2654082
1291,0.7628451,0.7154584,0.2654082
1293,0.7548515,0.7049889,0.2705197
1295,0.7478197,0.6960504,0.2741124
1298,0.7478197,0.6960504,0.2741124
1300,0.7335538,0.6772422,0.2818553
1302,0.7335538,0.6772422,0.2818553
1305,0.7265852,0.6682253,0.2853053
1307,0.7265852,0.6682253,0.2853053
1309,0.7209076,0.660568,0.2887141
1312,0.7080355,0.6431577,0.2947506
1314,0.7080355,0.6431577,0.2947506
1316,0.7279305,0.6685182,0.2866737
1318,0.7279305,0.6685182,0.2866737
1321,0.7441474,0.6892704,0.2797648
1324,0.7582139,0.7066523,0.2748253
1326,0.7582139,0.7066523,0.2748253
1329,0.751474,0.6996954,0.2748253
1331,0.751474,0.6996954,0.2748253
1333,0.7446731,0.6915378,0.2762456
1336,0.7446731,0.6915378,0.2762456
1338,0.7391344,0.6847132,0.2776587
1340,0.7545922,0.7044336,0.2712421
1343,0.7545922,0.7044336,0.2712421
1345,0.7717707,0.7252374,0.2631872
1347,0.7717707,0.7252374,0.2631872
1350,0.7860898,0.742568,0.2586879
1352,0.7860898,0.742568,0.2586879
1354,0.7763211,0.7295417,0.2661444
1357,0.7732905,0.7252374,0.268341
1359,0.7732905,0.7252374,0.268341
1361,0.7561465,0.7035998,0.2762456
1364,0.7561465,0.7035998,0.2762456
1367,0.7501709,0.6960504,0.2790645
1369,0.7438844,0.6872803,0.2832403
1372,0.7438844,0.6872803,0.2832403
1374,0.7351527,0.6752167,0.2900664
1376,0.7351527,0.6752167,0.2900664
1379,0.7330202,0.66998,0.2954137
1381,0.7330202,0.66998,0.2954137
1383,0.7530347,0.6923862,0.2947506
1386,0.7712635,0.7146374,0.289391
1388,0.7712635,0.7146374,0.289391
1390,0.7845948,0.7265852,0.2947506
1393,0.7845948,0.7265852,0.2947506
1395,0.7828471,0.721179,0.302612
1397,0.7972127,0.7367479,0.302612
1400,0.7972127,0.7367479,0.302612
1402,0.8106001,0.7532945,0.2973941
1404,0.8106001,0.7532945,0.2973941
1406,0.8322775,0.7798419,0.289391
1410,0.8322775,0.7798419,0.289391
1412,0.848345,0.7999081,0.2818553
1414,0.8746923,0.8325126,0.2690692
1417,0.8746923,0.8325126,0.2690692
1419,0.8873522,0.8478836,0.261696
1421,0.8873522,0.8478836,0.261696
1424,0.8989637,0.8620735,0.2556444
1426,0.9200482,0.886911,0.2462884
1428,0.9200482,0.886911,0.2462884
1431,0.9287274,0.8970026,0.2422834
1433,0.9287274,0.8970026,0.2422834
1435,0.9354453,0.9046055,0.2398483
1438,0.9354453,0.9046055,0.2398483
1440,0.9470872,0.9185583,0.2332305
1442,0.9151434,0.8809339,0.2502292
1445,0.9151434,0.8809339,0.2502292
1447,0.9039564,0.867504,0.2564087
1449,0.9039564,0.867504,0.2564087
1453,0.8778186,0.8372003,0.2668786
1455,0.8778186,0.8372003,0.2668786
1457,0.8397673,0.7915472,0.2811602
1460,0.8462666,0.8003972,0.2762456
1462,0.8462666,0.8003972,0.2762456
1464,0.8566085,0.8134917,0.2690692
1467,0.8566085,0.8134917,0.2690692
1469,0.8693066,0.8292154,0.261696
1471,0.8886743,0.8531751,0.2502292
1474,0.8886743,0.8531751,0.2502292
1476,0.899834,0.866827,0.2438933
1478,0.899834,0.866827,0.2438933
1481,0.9170658,0.8871316,0.234068
1483,0.9170658,0.8871316,0.234068
1485,0.9255615,0.8972207,0.2298502
1488,0.9329317,0.9052542,0.2264194
1490,0.9329317,0.9052542,0.2264194
1492,0.9441901,0.9183452,0.2211734
1495,0.9441901,0.9183452,0.2211734
1498,0.9485323,0.9234449,0.2185032
1500,0.9350269,0.9089215,0.2211734
1502,0.9350269,0.9089215,0.2211734
1505,0.9208986,0.8935054,0.2255535
1507,0.9208986,0.8935054,0.2255535
1509,0.8816,0.8494976,0.2373883
1512,0.8816,0.8494976,0.2373883
1514,0.8586619,0.8235324,0.2446942
1516,0.8609378,0.826142,0.2438933
1519,0.8609378,0.826142,0.2438933
1521,0.8641139,0.8296872,0.2430897
1523,0.8641139,0.8296872,0.2430897
1526,0.8545501,0.8192443,0.2438933
1528,0.8393012,0.8030819,0.2454926
1530,0.8393012,0.8030819,0.2454926
1533,0.8201992,0.7808449,0.2533378
1536,0.8201992,0.7808449,0.2533378
1538,0.7915472,0.7465102,0.2639296
1541,0.7915472,0.7465102,0.2639296
1543,0.8023506,0.7595032,0.2601963
1545,0.81781,0.7773286,0.2548778
1548,0.81781,0.7773286,0.2548778
1550,0.8086666,0.7661725,0.2594432
1552,0.8086666,0.7661725,0.2594432
1555,0.800886,0.7561465,0.2639296
1557,0.800886,0.7561465,0.2639296
1559,0.8091505,0.7628451,0.2697954
1562,0.8213912,0.7750598,0.2719625
1564,0.8213912,0.7750598,0.2719625
1566,0.828271,0.7793398,0.2804634
1569,0.828271,0.7793398,0.2804634
1571,0.8256681,0.7750598,0.2853053
1573,0.8235324,0.7710097,0.289391
1575,0.8235324,0.7710097,0.289391
1579,0.8488063,0.7972127,0.2920831
1581,0.8488063,0.7972127,0.2920831
1583,0.858206,0.806971,0.2934199
1586,0.858206,0.806971,0.2934199
1588,0.8515682,0.7967216,0.301316
1590,0.8492672,0.7927822,0.3051875
1593,0.8492672,0.7927822,0.3051875
1595,0.8699816,0.8161334,0.302612
1597,0.8699816,0.8161334,0.302612
1600,0.8780415,0.8247196,0.3019647
1602,0.8666012,0.8103587,0.3077414
1604,0.8666012,0.8103587,0.3077414
1607,0.8625273,0.8052719,0.3102743
1609,0.8625273,0.8052719,0.3102743
1611,0.8448781,0.7820969,0.3202056
1614,0.8448781,0.7820969,0.3202056
1616,0.8216294,0.751474,0.3316129
1618,0.8139727,0.741777,0.3357179
1622,0.8139727,0.741777,0.3357179
1624,0.8076981,0.733287,0.339197
1626,0.8076981,0.733287,0.339197
1629,0.8023506,0.7268545,0.3397734
1631,0.8023506,0.7268545,0.3397734
1633,0.7999081,0.7238871,0.3357179
1636,0.8308656,0.762332,0.3310224
1638,0.8308656,0.762332,0.3310224
1640,0.8425589,0.7763211,0.3280534
1643,0.8425589,0.7763211,0.3280534
1645,0.8602557,0.7974581,0.3232465
1647,0.8572935,0.7942618,0.3238513
1650,0.8572935,0.7942618,0.3238513
1652,0.8437192,0.7765731,0.329838
1654,0.8437192,0.7765731,0.329838
1657,0.8230571,0.749649,0.3397734
1659,0.8230571,0.749649,0.3397734
1661,0.8106001,0.7330202,0.3460502
1664,0.8006416,0.7195491,0.3505445
1667,0.8006416,0.7195491,0.3505445
1669,0.7800927,0.6918207,0.3593647
1671,0.7800927,0.6918207,0.3593647
1674,0.7727842,0.6812752,0.3631561
1676,0.8101172,0.7303458,0.3494264
1678,0.8101172,0.7303458,0.3494264
1681,0.8244823,0.7486043,0.3443497
1683,0.8244823,0.7486043,0.3443497
1685,0.8476528,0.7783349,0.3339648
1688,0.8476528,0.7783349,0.3339648
1690,0.8842595,0.8244823,0.3189811
1692,0.8737969,0.8118062,0.3226406
1695,0.8737969,0.8118062,0.3226406
1697,0.8598006,0.7942618,0.3286494
1699,0.8598006,0.7942618,0.3286494
1702,0.8731248,0.8108415,0.3226406
1704,0.8945997,0.8372003,0.3146578
1707,0.8945997,0.8372003,0.3146578
1710,0.8813781,0.8211529,0.3195939
1712,0.8813781,0.8211529,0.3195939
1714,0.8708809,0.8084246,0.3232465
1717,0.8629809,0.7981939,0.3268584
1719,0.8751395,0.8158936,0.315899
1721,0.8950371,0.8430232,0.3006659
1724,0.8950371,0.8430232,0.3006659
1726,0.8809339,0.826142,0.3058279
1728,0.8809339,0.826142,0.3058279
1731,0.8699816,0.812529,0.3109043
1733,0.8699816,0.812529,0.3109043
1735,0.8462666,0.782347,0.3220336
1738,0.8343908,0.7664279,0.3286494
1740,0.8343908,0.7664279,0.3286494
1742,0.7512136,0.6638185,0.3527702
1745,0.7512136,0.6638185,0.3527702
1747,0.6937978,0.5891711,0.3685048
1750,0.6711472,0.5539077,0.3810355
1752,0.6711472,0.5539077,0.3810355
1755,0.6617518,0.5392296,0.3861367
1757,0.6617518,0.5392296,0.3861367
1759,0.6199199,0.4780633,0.3986039
1762,0.6199199,0.4780633,0.3986039
1764,0.5623221,0.3835945,0.4187142
1766,0.5723243,0.3976209,0.4182466
1769,0.5723243,0.3976209,0.4182466
1771,0.5858405,0.4154301,0.4182466
1773,0.5858405,0.4154301,0.4182466
1776,0.563365,0.3769049,0.4256662
1778,0.5460806,0.343781,0.4325065
1780,0.5460806,0.343781,0.4325065
1783,0.5151029,0.2783625,0.4454334
1785,0.5151029,0.2783625,0.4454334
1787,0.5035778,0.2478722,0.4515415
1790,0.5035778,0.2478722,0.4515415
1793,0.4897892,0.2027088,0.4626713
1795,0.5008504,0.235734,0.4562834
1798,0.5008504,0.235734,0.4562834
1800,0.5120549,0.2639296,0.4511079
1802,0.5120549,0.2639296,0.4511079
1805,0.5047422,0.2430897,0.4558544
1807,0.5016313,0.2332305,0.4579955
1809,0.5016313,0.2332305,0.4579955
1812,0.5311863,0.3045456,0.4458725
1814,0.5311863,0.3045456,0.4458725
1816,0.5245137,0.2907402,0.4476244
1819,0.5245137,0.2907402,0.4476244
1821,0.5185105,0.2783625,0.4498048
1823,0.5286014,0.302612,0.4436728
1826,0.5286014,0.302612,0.4436728
1828,0.5424856,0.3322025,0.4379019
1830,0.5424856,0.3322025,0.4379019
1833,0.5410409,0.3316129,0.4370072
1836,0.5410409,0.3316129,0.4370072
1838,0.53008,0.3102743,0.4401304
1840,0.5089886,0.2631872,0.4489339
1843,0.5089886,0.2631872,0.4489339
1845,0.5000685,0.2398483,0.4541341
1847,0.5000685,0.2398483,0.4541341
1850,0.4933717,0.2211734,0.4584226
1852,0.5074486,0.2846186,0.4338616
1854,0.5074486,0.2846186,0.4338616
1857,0.5154827,0.309643,0.4247459
1859,0.5154827,0.309643,0.4247459
1861,0.5055169,0.2907402,0.4279585
1864,0.5055169,0.2907402,0.4279585
1866,0.4909863,0.2609472,0.4320539
1868,0.5028,0.2980514,0.4191812
1871,0.5028,0.2980514,0.4191812
1873,0.5399548,0.3794918,0.3941611
1875,0.5399548,0.3794918,0.3941611
1879,0.563365,0.4219727,0.3820612
1881,0.5609285,0.4270431,0.3732531
1883,0.5609285,0.4270431,0.3732531
1886,0.5414024,0.4020255,0.373777
1888,0.5414024,0.4020255,0.373777
1890,0.5260038,0.3820612,0.3748225
1893,0.5260038,0.3820612,0.3748225
1895,0.5532007,0.427501,0.3609945
1897,0.5637122,0.4449939,0.3566318
1900,0.5637122,0.4449939,0.3566318
1902,0.5196414,0.3711503,0.3758652
1904,0.5196414,0.3711503,0.3758652
1907,0.5043544,0.343781,0.382573
1909,0.5043544,0.343781,0.382573
1911,0.5188877,0.3695653,0.3769049
1914,0.5188877,0.3695653,0.3769049
1916,0.5188877,0.3695653,0.3769049
1918,0.5016313,0.3460502,0.3774237
1922,0.5016313,0.3460502,0.3774237
1924,0.4869847,0.3262592,0.3779418
1926,0.4668813,0.2947506,0.3810355
1928,0.4668813,0.2947506,0.3810355
1931,0.4387946,0.249446,0.3861367
1933,0.4387946,0.249446,0.3861367
1935,0.4532716,0.2825486,0.3763854
1938,0.4532716,0.2825486,0.3763854
1940,0.4813265,0.3368816,0.3620769
1942,0.5120549,0.3856296,0.3516591
1945,0.5120549,0.3856296,0.3516591
1947,0.5654452,0.4626713,0.3357179
1949,0.5654452,0.4626713,0.3357179
1952,0.5417637,0.4320539,0.339197
1954,0.5074486,0.3876539,0.343781
1956,0.5074486,0.3876539,0.343781
1959,0.4805128,0.3499859,0.3488659
1961,0.4805128,0.3499859,0.3488659
1964,0.4445539,0.2960753,0.3571801
1967,0.4445539,0.2960753,0.3571801
1969,0.4284154,0.2697954,0.360452
1971,0.4063823,0.2349025,0.364769
1974,0.4063823,0.2349025,0.364769
1976,0.4242849,0.2705197,0.3560827
1978,0.4242849,0.2705197,0.3560827
1981,0.4427898,0.3039024,0.3488659
1983,0.4796977,0.3615361,0.3368816
1985,0.4796977,0.3615361,0.3368816
1988,0.5471546,0.4558544,0.3183671
1990,0.5471546,0.4558544,0.3183671
1992,0.5753932,0.4925778,0.3109043
1995,0.5753932,0.4925778,0.3109043
1997,0.644677,0.57743,0.2940859
1999,0.615167,0.5432066,0.2987072
2002,0.615167,0.5432066,0.2987072
2004,0.5736903,0.4941643,0.3051875
2007,0.5736903,0.4941643,0.3051875
2010,0.5588315,0.4768338,0.3064671
2012,0.5588315,0.4768338,0.3064671
2014,0.4981082,0.4005627,0.3189811
2016,0.4718838,0.364769,0.324455
2019,0.4718838,0.364769,0.324455
2021,0.4352126,0.3140353,0.3333784
2023,0.4352126,0.3140353,0.3333784
2026,0.4228991,0.2934199,0.3380413
2028,0.4135417,0.276953,0.3420692
2030,0.4135417,0.276953,0.3420692
2033,0.4000739,0.2525642,0.3483046
2035,0.4000739,0.2525642,0.3483046
2037,0.3951527,0.2438933,0.3499859
2040,0.3951527,0.2438933,0.3499859
2042,0.3891652,0.23239,0.3533245
2044,0.3876539,0.2289973,0.354982
2048,0.3876539,0.2289973,0.354982
2050,0.3856296,0.2255535,0.3555328
2052,0.3856296,0.2255535,0.3555328
2055,0.4383485,0.315279,0.3345502
2057,0.466462,0.3571801,0.3268584
2059,0.466462,0.3571801,0.3268584
2062,0.4643598,0.354982,0.3262592
2064,0.4643598,0.354982,0.3262592
2066,0.4639383,0.3544303,0.3262592
2069,0.4639383,0.3544303,0.3262592
2071,0.5337587,0.4484978,0.3090104
2073,0.563365,0.4857778,0.3019647
2076,0.563365,0.4857778,0.3019647
2078,0.6084505,0.5403171,0.2934199
2080,0.6084505,0.5403171,0.2934199
2083,0.6827098,0.6271377,0.2776587
2085,0.6827098,0.6271377,0.2776587
2087,0.652521,0.5924829,0.2839303
2091,0.5848376,0.5128186,0.2973941
2093,0.5848376,0.5128186,0.2973941
2095,0.5500081,0.4706381,0.3039024
2098,0.5500081,0.4706381,0.3039024
2100,0.4929749,0.3976209,0.3165179
2102,0.4693892,0.3658403,0.3220336
2104,0.4693892,0.3658403,0.3220336
2107,0.4515415,0.3409232,0.3262592
2109,0.4515415,0.3409232,0.3262592
2111,0.5055169,0.4154301,0.3121605
2114,0.5055169,0.4154301,0.3121605
2116,0.5282311,0.4449939,0.3071049
2118,0.501241,0.4111691,0.311533
2121,0.501241,0.4111691,0.311533
2123,0.4917827,0.3995845,0.3140353
2125,0.4917827,0.3995845,0.3140353
2128,0.454995,0.3505445,0.3214254
2130,0.4427898,0.3333784,0.324455
2132,0.4427898,0.3333784,0.324455
2136,0.4177785,0.2947506,0.3322025
2138,0.4177785,0.2947506,0.3322025
2140,0.4087828,0.2818553,0.3357179
2143,0.4087828,0.2818553,0.3357179
2145,0.3961419,0.2594432,0.3409232
2147,0.3916712,0.25101,0.3426407
2150,0.3916712,0.25101,0.3426407
2152,0.3851218,0.2365626,0.3483046
2154,0.3851218,0.2365626,0.3483046
2157,0.3830841,0.23239,0.3499859
2159,0.4054182,0.2705197,0.3403488
2161,0.4054182,0.2705197,0.3403488
2164,0.4554249,0.3454843,0.324455
2166,0.4554249,0.3454843,0.324455
2168,0.4515415,0.339197,0.3256589
2171,0.4515415,0.339197,0.3256589
2173,0.4463111,0.3310224,0.3286494
2176,0.4338616,0.3109043,0.332791
2179,0.4338616,0.3109043,0.332791
2181,0.416371,0.2832403,0.3380413
2183,0.416371,0.2832403,0.3380413
2185,0.4135417,0.268341,0.3483046
2188,0.4135417,0.268341,0.3483046
2190,0.410693,0.2470816,0.3631561
2192,0.4111691,0.2365626,0.3711503
2195,0.4111691,0.2365626,0.3711503
2197,0.4125943,0.2289973,0.3784592
2199,0.4125943,0.2289973,0.3784592
2202,0.4121198,0.220287,0.3835945
2204,0.4111691,0.2185032,0.3846134
2206,0.4111691,0.2185032,0.3846134
2209,0.4078243,0.2185032,0.382573
2211,0.4078243,0.2185032,0.382573
2213,0.4059006,0.2193969,0.3815487
2216,0.4059006,0.2193969,0.3815487
2219,0.4025119,0.2211734,0.3779418
2221,0.4010509,0.2220564,0.3758652
2224,0.4010509,0.2220564,0.3758652
2226,0.3990945,0.2229358,0.3732531
2228,0.3990945,0.2229358,0.3732531
2231,0.3976209,0.2246844,0.3700944
2233,0.4182466,0.2690692,0.3566318
2235,0.4182466,0.2690692,0.3566318
2238,0.4739525,0.3588198,0.3357179
2240,0.4739525,0.3588198,0.3357179
2242,0.4756011,0.3620769,0.3351346
2245,0.4756011,0.3620769,0.3351346
2247,0.4776538,0.364769,0.3345502
2249,0.5166202,0.4201138,0.3232465
2252,0.5166202,0.4201138,0.3232465
2254,0.5514293,0.4652019,0.315279
2256,0.5514293,0.4652019,0.315279
2259,0.5824909,0.5043544,0.3077414
2262,0.5678623,0.4873863,0.309643
2264,0.5678623,0.4873863,0.309643
2267,0.5341251,0.4476244,0.3140353
2269,0.5341251,0.4476244,0.3140353
2271,0.5158621,0.4261257,0.3165179
2273,0.5158621,0.4261257,0.3165179
2276,0.5363187,0.454995,0.3077414
2278,0.5671728,0.4945601,0.2993615
2280,0.5671728,0.4945601,0.2993615
2283,0.5787839,0.5112901,0.2940859
2285,0.5787839,0.5112901,0.2940859
2287,0.5664824,0.4973219,0.2940859
2290,0.5664824,0.4973219,0.2940859
2292,0.5574291,0.4877876,0.2947506
2294,0.6211812,0.5647526,0.2776587
2297,0.6211812,0.5647526,0.2776587
2299,0.6477052,0.5957764,0.2712421
2301,0.6477052,0.5957764,0.2712421
2305,0.5964329,0.5374122,0.2797648
2307,0.5794597,0.5173771,0.2825486
2309,0.5794597,0.5173771,0.2825486
2312,0.6262009,0.5709552,0.2748253
2314,0.6262009,0.5709552,0.2748253
2316,0.64589,0.5924829,0.2719625
2319,0.64589,0.5924829,0.2719625
2321,0.7099674,0.6641131,0.2601963
2323,0.7362165,0.6926687,0.2571706
2326,0.7362165,0.6926687,0.2571706
2328,0.7008132,0.6537194,0.2631872
2330,0.7008132,0.6537194,0.2631872
2333,0.6230683,0.5654452,0.2783625
2335,0.5528469,0.4825446,0.2934199
2337,0.5528469,0.4825446,0.2934199
2340,0.5286014,0.4528397,0.2987072
2342,0.5286014,0.4528397,0.2987072
2344,0.4985009,0.4149588,0.3058279
2348,0.4985009,0.4149588,0.3058279
2350,0.4571402,0.3599087,0.315899
2352,0.4410186,0.3363003,0.3214254
2355,0.4410186,0.3363003,0.3214254
2357,0.4191812,0.3019647,0.3304307
2359,0.4191812,0.3019647,0.3304307
2361,0.4111691,0.2887141,0.3345502
2364,0.4111691,0.2887141,0.3345502
2366,0.4000739,0.2697954,0.3397734
2368,0.3961419,0.2609472,0.3426407
2371,0.3961419,0.2609472,0.3426407
2373,0.3906707,0.2502292,0.3460502
2375,0.3906707,0.2502292,0.3460502
2378,0.3886621,0.2454926,0.3483046
2380,0.3876539,0.2414744,0.3494264
2382,0.3876539,0.2414744,0.3494264
2385,0.3861367,0.2365626,0.3527702
2387,0.3861367,0.2365626,0.3527702
2390,0.3851218,0.234068,0.3533245
2393,0.3851218,0.234068,0.3533245
2395,0.3856296,0.23239,0.3555328
2397,0.3856296,0.2315465,0.3560827
2400,0.3856296,0.2315465,0.3560827
2402,0.3861367,0.2315465,0.3566318
2404,0.3861367,0.2315465,0.3566318
2407,0.3861367,0.2315465,0.3566318
2409,0.3916712,0.23239,0.3609945
2411,0.3916712,0.23239,0.3609945
2414,0.3986039,0.2332305,0.3674413
2416,0.3986039,0.2332305,0.3674413
2418,0.403483,0.2332305,0.3722032
2421,0.403483,0.2332305,0.3722032
2423,0.410693,0.23239,0.3794918
2425,0.4154301,0.2332305,0.3841043
2428,0.4154301,0.2332305,0.3841043
2430,0.4210443,0.2315465,0.3911712
2433,0.4210443,0.2315465,0.3911712
2436,0.4196478,0.2365626,0.386643
2438,0.4182466,0.2454926,0.3800071
2440,0.4182466,0.2454926,0.3800071
2443,0.4154301,0.2470816,0.3769049
2445,0.4154301,0.2470816,0.3769049
2447,0.4130683,0.2486604,0.373777
2449,0.4130683,0.2486604,0.373777
2452,0.4059006,0.2478722,0.3663747
2454,0.4029978,0.2478722,0.3636945
2456,0.4029978,0.2478722,0.3636945
2459,0.4005627,0.2486604,0.3609945
2461,0.4005627,0.2486604,0.3609945
2463,0.3995845,0.254109,0.3555328
2466,0.3995845,0.254109,0.3555328
2468,0.3986039,0.2548778,0.3538778
2470,0.3966355,0.2586879,0.3505445
2473,0.3966355,0.2586879,0.3505445
2476,0.3971285,0.2609472,0.3494264
2478,0.3971285,0.2609472,0.3494264
2481,0.3966355,0.2661444,0.3460502
2483,0.3966355,0.2668786,0.3443497
2485,0.3966355,0.2668786,0.3443497
2488,0.3961419,0.2712421,0.3420692
2490,0.3961419,0.2712421,0.3420692
2492,0.3971285,0.2741124,0.3409232
2495,0.3971285,0.2741124,0.3409232
2497,0.3976209,0.2755364,0.3403488
2499,0.3976209,0.2790645,0.3380413
2502,0.3976209,0.2790645,0.3380413
2504,0.3990945,0.2818553,0.3374619
2506,0.3990945,0.2818553,0.3374619
2509,0.4010509,0.2846186,0.3363003
2511,0.4020255,0.2880355,0.3357179
2513,0.4020255,0.2880355,0.3357179
2516,0.4044518,0.2927522,0.3339648
2519,0.4044518,0.2927522,0.3339648
2521,0.4059006,0.2954137,0.3333784
2524,0.4059006,0.2954137,0.3333784
2526,0.4102162,0.301316,0.3322025
2528,0.4121198,0.3051875,0.3316129
2531,0.4121198,0.3051875,0.3316129
2533,0.4154301,0.309643,0.3310224
2535,0.4154301,0.309643,0.3310224
2537,0.416371,0.3127867,0.3304307
2540,0.416371,0.3127867,0.3304307
2542,0.4182466,0.3146578,0.329838
2544,0.4187142,0.315279,0.3292442
2547,0.4187142,0.315279,0.3292442
2549,0.4191812,0.3165179,0.3286494
2551,0.4191812,0.3165179,0.3286494
2554,0.4201138,0.3171355,0.3286494
2556,0.4182466,0.3146578,0.3274564
2558,0.4182466,0.3146578,0.3274564
2562,0.4159008,0.3127867,0.3268584
2564,0.4159008,0.3127867,0.3268584
2566,0.4149588,0.3109043,0.3262592
2569,0.4149588,0.3109043,0.3262592
2571,0.414487,0.3083766,0.3250574
2573,0.414487,0.3083766,0.3250574
2576,0.414487,0.3083766,0.3250574
2578,0.414487,0.3083766,0.3250574
2580,0.414487,0.3083766,0.3250574
2583,0.414487,0.3102743,0.3238513
2585,0.414487,0.3121605,0.3238513
2587,0.414487,0.3121605,0.3238513
2590,0.4149588,0.3127867,0.3226406
2592,0.4149588,0.3127867,0.3226406
2594,0.456712,0.3711503,0.3102743
2597,0.456712,0.3711503,0.3102743
2599,0.5355885,0.4702222,0.2907402
2601,0.5341251,0.4685547,0.2907402
2605,0.5341251,0.4685547,0.2907402
2607,0.518133,0.4493696,0.2934199
2609,0.518133,0.4493696,0.2934199
2612,0.5059038,0.4352126,0.2960753
2614,0.4969283,0.4238235,0.2980514
2616,0.4969283,0.4238235,0.2980514
2619,0.4693892,0.3891652,0.3051875
2621,0.4693892,0.3891652,0.3051875
2623,0.4601268,0.3763854,0.3071049
2625,0.4601268,0.3763854,0.3071049
2628,0.4410186,0.3516591,0.3127867
2630,0.4347627,0.3426407,0.3146578
2632,0.4347627,0.3426407,0.3146578
2635,0.429328,0.3357179,0.315899
2637,0.429328,0.3357179,0.315899
2639,0.4187142,0.315899,0.3226406
2642,0.4187142,0.315899,0.3226406
2644,0.4121198,0.3058279,0.3256589
2647,0.4078243,0.2973941,0.3286494
2650,0.4078243,0.2973941,0.3286494
2652,0.3995845,0.2804634,0.3333784
2654,0.3995845,0.2804634,0.3333784
2657,0.3966355,0.2748253,0.3345502
2659,0.393167,0.2697954,0.3345502
2661,0.393167,0.2697954,0.3345502
2664,0.3886621,0.2631872,0.3351346
2666,0.3886621,0.2631872,0.3351346
2668,0.3856296,0.2586879,0.3357179
2671,0.3856296,0.2586879,0.3357179
2673,0.3841043,0.2548778,0.3363003
2675,0.4116447,0.2987072,0.3250574
2678,0.4116447,0.2987072,0.3250574
2680,0.4445539,0.343781,0.315899
2682,0.4445539,0.343781,0.315899
2685,0.4788812,0.3901695,0.3077414
2688,0.4817329,0.3946573,0.3077414
2690,0.4817329,0.3946573,0.3077414
2693,0.5623221,0.4957456,0.2880355
2695,0.5623221,0.4957456,0.2880355
2697,0.5961047,0.5366834,0.2804634
2700,0.5961047,0.5366834,0.2804634
2702,0.6065179,0.5489398,0.2783625
2704,0.591822,0.5326577,0.2811602
2707,0.591822,0.5326577,0.2811602
2709,0.649214,0.5983981,0.2697954
2711,0.649214,0.5983981,0.2697954
2713,0.6734757,0.6255757,0.2661444
2716,0.6471007,0.5964329,0.2712421
2718,0.6471007,0.5964329,0.2712421
2720,0.612617,0.5570779,0.2790645
2723,0.612617,0.5570779,0.2790645
2725,0.5811456,0.5200178,0.2859903
2727,0.5811456,0.5200178,0.2859903
2731,0.5377761,0.468137,0.2967354
2733,0.5135812,0.4392403,0.3019647
2735,0.5135812,0.4392403,0.3019647
2738,0.4805128,0.3981127,0.309643
2740,0.4805128,0.3981127,0.309643
2742,0.4668813,0.3810355,0.3127867
2745,0.4668813,0.3810355,0.3127867
2747,0.4562834,0.3674413,0.315279
2749,0.4405747,0.3471792,0.3195939
2752,0.4405747,0.3471792,0.3195939
2754,0.4347627,0.339197,0.3214254
2756,0.4347627,0.339197,0.3214254
2759,0.4252063,0.3268584,0.3232465
2761,0.4215088,0.3214254,0.3250574
2763,0.4215088,0.3214254,0.3250574
2766,0.416371,0.315279,0.3256589
2768,0.416371,0.315279,0.3256589
2770,0.414487,0.3134116,0.3256589
2774,0.414487,0.3134116,0.3256589
2776,0.4116447,0.3109043,0.3256589
2778,0.410693,0.309643,0.3262592
2781,0.410693,0.309643,0.3262592
2783,0.409739,0.3083766,0.3262592
2785,0.409739,0.3083766,0.3262592
2788,0.4078243,0.3071049,0.3256589
2790,0.4068635,0.3064671,0.3250574
2792,0.4068635,0.3064671,0.3250574
2794,0.4063823,0.3071049,0.324455
2797,0.4063823,0.3071049,0.324455
2799,0.4068635,0.3064671,0.324455
2801,0.4068635,0.3064671,0.324455
2804,0.4049353,0.3071049,0.3232465
2806,0.4044518,0.3064671,0.3220336
2808,0.4044518,0.3064671,0.3220336
2811,0.4049353,0.3064671,0.3220336
2813,0.4049353,0.3064671,0.3220336
2816,0.4044518,0.3064671,0.3214254
2819,0.4044518,0.3064671,0.3214254
2821,0.4044518,0.3064671,0.3214254
2823,0.4044518,0.3064671,0.3202056
2826,0.4044518,0.3064671,0.3202056
2828,0.4044518,0.3064671,0.3208161
2830,0.4044518,0.3064671,0.3208161
2833,0.4054182,0.3064671,0.3208161
2835,0.4049353,0.3064671,0.3214254
2837,0.4049353,0.3064671,0.3214254
2840,0.4054182,0.3058279,0.3208161
2842,0.4054182,0.3058279,0.3208161
2844,0.4054182,0.3071049,0.3202056
2847,0.4054182,0.3071049,0.3202056
2849,0.4054182,0.3071049,0.3202056
2851,0.4068635,0.309643,0.3202056
2854,0.4068635,0.309643,0.3202056
2856,0.4087828,0.3102743,0.3208161
2859,0.4087828,0.3102743,0.3208161
2862,0.4083038,0.3090104,0.3202056
2864,0.4083038,0.3090104,0.3202056
2866,0.4083038,0.3090104,0.3202056
2869,0.4111691,0.3121605,0.3214254
2871,0.4111691,0.3121605,0.3214254
2873,0.4125943,0.3134116,0.3214254
2876,0.4125943,0.3134116,0.3214254
2878,0.4140146,0.3146578,0.3226406
2880,0.4159008,0.315899,0.3238513
2882,0.4159008,0.315899,0.3238513
2885,0.4177785,0.3171355,0.324455
2887,0.4177785,0.3171355,0.324455
2889,0.4201138,0.3195939,0.3256589
2892,0.4215088,0.3189811,0.3268584
2894,0.4215088,0.3189811,0.3268584
2896,0.4233615,0.3202056,0.3280534
2899,0.4233615,0.3202056,0.3280534
2902,0.4238235,0.3214254,0.3274564
2904,0.4238235,0.3214254,0.3274564
2907,0.4238235,0.3220336,0.3280534
2909,0.468137,0.3820612,0.315279
2911,0.468137,0.3820612,0.315279
2914,0.5112901,0.4365593,0.3045456
2916,0.5112901,0.4365593,0.3045456
2918,0.5245137,0.4524074,0.301316
2921,0.5245137,0.4524074,0.301316
2923,0.530449,0.4597013,0.3000144
2925,0.5188877,0.4445539,0.302612
2928,0.5188877,0.4445539,0.302612
2930,0.5031891,0.4242849,0.3071049
2932,0.5031891,0.4242849,0.3071049
2935,0.4909863,0.4078243,0.311533
2937,0.4743652,0.3846134,0.3171355
2939,0.4743652,0.3846134,0.3171355
2942,0.5169988,0.4392403,0.3071049
2945,0.5169988,0.4392403,0.3071049
2947,0.589503,0.5267473,0.2914124
2950,0.589503,0.5267473,0.2914124
2952,0.6443735,0.5901666,0.2804634
2954,0.7356848,0.6921035,0.2631872
2957,0.7356848,0.6921035,0.2631872
2959,0.7121689,0.6658786,0.2690692
2961,0.7121689,0.6658786,0.2690692
2964,0.680988,0.63025,0.2762456
2966,0.708588,0.661456,0.2705197
2968,0.708588,0.661456,0.2705197
2970,0.7330202,0.6887025,0.2654082
2973,0.7330202,0.6887025,0.2654082
2975,0.7214502,0.6755064,0.2676108
2977,0.7214502,0.6755064,0.2676108
2980,0.6957693,0.6467983,0.2733977
2982,0.6388841,0.5814822,0.2853053
2984,0.6388841,0.5814822,0.2853053
2988,0.6094146,0.5475121,0.2920831
2990,0.6094146,0.5475121,0.2920831
2992,0.6167554,0.556375,0.2900664
2995,0.6431577,0.5878411,0.2839303
2997,0.6431577,0.5878411,0.2839303
2999,0.644677,0.589503,0.2832403
3002,0.644677,0.589503,0.2832403
3004,0.6277614,0.5702693,0.2859903
3006,0.6277614,0.5702693,0.2859903
3009,0.614212,0.5549665,0.2887141
3011,0.6760855,0.6265134,0.2748253
3013,0.6760855,0.6265134,0.2748253
3016,0.7008132,0.6549156,0.2697954
3018,0.7008132,0.6549156,0.2697954
3020,0.6570037,0.6065179,0.276953
3023,0.6570037,0.6065179,0.276953
3025,0.6832828,0.6361217,0.2705197
3027,0.7060983,0.6617518,0.2661444
3031,0.7060983,0.6617518,0.2661444
3033,0.694925,0.649214,0.2668786
3035,0.694925,0.649214,0.2668786
3038,0.6705639,0.6218109,0.2712421
3040,0.6090934,0.5521386,0.2811602
3042,0.6090934,0.5521386,0.2811602
3045,0.5760729,0.5128186,0.2866737
3047,0.5760729,0.5128186,0.2866737
3049,0.5237671,0.4498048,0.2967354
3052,0.5237671,0.4498048,0.2967354
3054,0.5035778,0.4242849,0.301316
3056,0.4685547,0.3789758,0.3083766
3058,0.4685547,0.3789758,0.3083766
3061,0.453703,0.358274,0.311533
3063,0.453703,0.358274,0.311533
3065,0.4414621,0.3414966,0.3140353
3068,0.4233615,0.3146578,0.3183671
3070,0.4233615,0.3146578,0.3183671
3073,0.416371,0.3039024,0.3208161
3076,0.416371,0.3039024,0.3208161
3078,0.4068635,0.2873554,0.3238513
3080,0.4068635,0.2873554,0.3238513
3083,0.4029978,0.2811602,0.3256589
3085,0.3995845,0.272681,0.3280534
3087,0.3995845,0.272681,0.3280534
3090,0.3976209,0.2690692,0.3292442
3092,0.3976209,0.2690692,0.3292442
3094,0.4020255,0.2748253,0.329838
3097,0.4020255,0.2748253,0.329838
3099,0.4073442,0.2825486,0.3316129
3101,0.4121198,0.2880355,0.332791
3104,0.4121198,0.2880355,0.332791
3106,0.4182466,0.2954137,0.3339648
3108,0.4182466,0.2954137,0.3339648
3111,0.4121198,0.2748253,0.3432113
3113,0.4049353,0.2430897,0.3571801
3116,0.4049353,0.2430897,0.3571801
3119,0.4078243,0.2478722,0.3571801
3121,0.4078243,0.2478722,0.3571801
3123,0.4121198,0.2525642,0.3593647
3126,0.4121198,0.2525642,0.3593647
3128,0.4130683,0.2430897,0.3658403
3130,0.4140146,0.235734,0.3716771
3133,0.4140146,0.235734,0.3716771
3135,0.4154301,0.2148914,0.3841043
3137,0.4154301,0.2148914,0.3841043
3140,0.416371,0.2065338,0.3891652
3142,0.4191812,0.1938267,0.3981127
3144,0.4191812,0.1938267,0.3981127
3146,0.4205793,0.1876719,0.4020255
3149,0.4205793,0.1876719,0.4020255
3151,0.4320539,0.2055842,0.4059006
3153,0.4320539,0.2055842,0.4059006
3156,0.4370072,0.2121421,0.4073442
3159,0.4383485,0.2121421,0.4087828
3161,0.4383485,0.2121421,0.4087828
3164,0.4396856,0.2112177,0.4102162
3166,0.4396856,0.2112177,0.4102162
3168,0.4396856,0.2074791,0.4116447
3171,0.4396856,0.2017412,0.4149588
3173,0.4396856,0.2017412,0.4149588
3175,0.4383485,0.199792,0.4149588
3178,0.4383485,0.199792,0.4149588
3180,0.4370072,0.1968319,0.4149588
3182,0.4370072,0.1968319,0.4149588
3185,0.4338616,0.1876719,0.4154301
3187,0.4297835,0.1735894,0.4159008
3189,0.4297835,0.1735894,0.4159008
3192,0.4284154,0.1724585,0.4154301
3194,0.4284154,0.1724585,0.4154301
3196,0.4265846,0.1690205,0.414487
3200,0.4265846,0.1690205,0.414487
3202,0.4252063,0.1690205,0.4140146
3204,0.4242849,0.1701742,0.4130683
3207,0.4242849,0.1701742,0.4130683
3209,0.4238235,0.1724585,0.4125943
3211,0.4238235,0.1724585,0.4125943
3214,0.4238235,0.1724585,0.4121198
3216,0.4242849,0.1758294,0.4116447
3218,0.4242849,0.1758294,0.4116447
3221,0.4247459,0.174713,0.4116447
3223,0.4247459,0.174713,0.4116447
3225,0.427501,0.1897456,0.4087828
3228,0.427501,0.1897456,0.4087828
3230,0.4311472,0.1988102,0.4078243
3232,0.4338616,0.20842,0.4054182
3234,0.4338616,0.20842,0.4054182
3237,0.4445539,0.23239,0.403483
3239,0.4445539,0.23239,0.403483
3241,0.4489339,0.2414744,0.4025119
3245,0.4489339,0.2414744,0.4025119
3247,0.4489339,0.2414744,0.4025119
3249,0.4519747,0.2486604,0.4010509
3252,0.4519747,0.2486604,0.4010509
3254,0.4545648,0.2548778,0.4005627
3256,0.4545648,0.2548778,0.4005627
3259,0.4588492,0.2654082,0.3990945
3261,0.4609765,0.2697954,0.3986039
3263,0.4609765,0.2697954,0.3986039
3266,0.4622481,0.2741124,0.3981127
3268,0.4622481,0.2741124,0.3981127
3270,0.4698059,0.2880355,0.3966355
3273,0.4698059,0.2880355,0.3966355
3275,0.4727124,0.2934199,0.3961419
3277,0.4817329,0.309643,0.3946573
3280,0.4817329,0.309643,0.3946573
3282,0.4853748,0.315899,0.3936644
3284,0.4853748,0.315899,0.3936644
3288,0.4861804,0.3183671,0.393167
3290,0.4889896,0.3238513,0.3921704
3292,0.4889896,0.3238513,0.3921704
3295,0.4905876,0.3268584,0.3906707
3297,0.4905876,0.3268584,0.3906707
3299,0.4917827,0.3292442,0.3901695
3302,0.4917827,0.3292442,0.3901695
3304,0.4917827,0.3286494,0.3906707
3306,0.4929749,0.3316129,0.3896677
3309,0.4929749,0.3316129,0.3896677
3311,0.4941643,0.3339648,0.3881583
3313,0.4941643,0.3339648,0.3881583
3316,0.4953507,0.3368816,0.3876539
3318,0.4801054,0.3121605,0.3891652
3320,0.4801054,0.3121605,0.3891652
3322,0.4751895,0.3039024,0.3896677
3325,0.4751895,0.3039024,0.3896677
3328,0.4760123,0.3058279,0.3886621
3330,0.4760123,0.3058279,0.3886621
3333,0.4768338,0.3083766,0.3881583
3335,0.4805128,0.3146578,0.3876539
3337,0.4805128,0.3146578,0.3876539
3340,0.4833549,0.3195939,0.3876539
3342,0.4833549,0.3195939,0.3876539
3344,0.4833549,0.3183671,0.3871488
3347,0.4829499,0.3171355,0.3876539
3349,0.4829499,0.3171355,0.3876539
3351,0.4845679,0.3195939,0.3876539
3354,0.4845679,0.3195939,0.3876539
3356,0.4869847,0.3238513,0.3876539
3358,0.4869847,0.3238513,0.3876539
3361,0.4853748,0.3189811,0.3891652
3363,0.4829499,0.3165179,0.3891652
3365,0.4829499,0.3165179,0.3891652
3368,0.4677188,0.2880355,0.393167
3371,0.4677188,0.2880355,0.393167
3373,0.4622481,0.2776587,0.3946573
3376,0.4622481,0.2776587,0.3946573
3378,0.4571402,0.2661444,0.3971285
3380,0.453703,0.2564087,0.3995845
3383,0.453703,0.2564087,0.3995845
3385,0.4562834,0.2594432,0.4000739
3387,0.4562834,0.2594432,0.4000739
3390,0.4571402,0.2594432,0.4010509
3392,0.4622481,0.2668786,0.4015385
3394,0.4622481,0.2668786,0.4015385
3397,0.4660423,0.2719625,0.4029978
3399,0.4660423,0.2719625,0.4029978
3401,0.4652019,0.2661444,0.4054182
3403,0.4652019,0.2661444,0.4054182
3406,0.4622481,0.2571706,0.4073442
3408,0.4639383,0.2601963,0.4073442
3410,0.4639383,0.2601963,0.4073442
3414,0.4660423,0.2631872,0.4073442
3416,0.4660423,0.2631872,0.4073442
3418,0.4601268,0.249446,0.409739
3421,0.4515415,0.2272819,0.4121198
3423,0.4515415,0.2272819,0.4121198
3425,0.4489339,0.2193969,0.4135417
3428,0.4489339,0.2193969,0.4135417
3430,0.4445539,0.20842,0.4154301
3432,0.4445539,0.20842,0.4154301
3435,0.4484978,0.2167048,0.4149588
3437,0.453703,0.2289973,0.4140146
3439,0.453703,0.2289973,0.4140146
3442,0.4498048,0.220287,0.4140146
3444,0.4498048,0.220287,0.4140146
3446,0.4441136,0.2074791,0.4149588
3449,0.4419051,0.1988102,0.416371
3451,0.4419051,0.1988102,0.416371
3453,0.4383485,0.1887116,0.4177785
3457,0.4383485,0.1887116,0.4177785
3459,0.4370072,0.183454,0.4182466
3461,0.4370072,0.183454,0.4182466
3464,0.4352126,0.1802258,0.4182466
3466,0.4343124,0.1780411,0.4182466
3468,0.4343124,0.1780411,0.4182466
3471,0.4343124,0.1780411,0.4177785
3473,0.4343124,0.1780411,0.4177785
3475,0.4334104,0.1769387,0.4173099
3478,0.4334104,0.1769387,0.4173099
3480,0.4334104,0.1758294,0.4173099
3482,0.4325065,0.174713,0.4173099
3485,0.4325065,0.174713,0.4173099
3487,0.4370072,0.1928145,0.4135417
3489,0.4370072,0.1928145,0.4135417
3491,0.4387946,0.199792,0.4121198
3494,0.4532716,0.235734,0.409739
3496,0.4532716,0.235734,0.409739
3499,0.4601268,0.249446,0.4083038
3502,0.4601268,0.249446,0.4083038
3504,0.4584226,0.2454926,0.409739
3506,0.4584226,0.2454926,0.409739
3509,0.4575681,0.2446942,0.409739
3511,0.4609765,0.25101,0.4092611
3513,0.4609765,0.25101,0.4092611
3516,0.4668813,0.2631872,0.4087828
3518,0.4668813,0.2631872,0.4087828
3520,0.4727124,0.272681,0.4078243
3523,0.4768338,0.2797648,0.4078243
3525,0.4768338,0.2797648,0.4078243
3527,0.4801054,0.2853053,0.4083038
3530,0.4801054,0.2853053,0.4083038
3532,0.4784724,0.2797648,0.409739
3534,0.4784724,0.2797648,0.409739
3537,0.4743652,0.2719625,0.410693
3539,0.4656223,0.2533378,0.4125943
3542,0.4656223,0.2533378,0.4125943
3545,0.4614008,0.2438933,0.4135417
3547,0.4614008,0.2438933,0.4135417
3549,0.4614008,0.2438933,0.4121198
3552,0.4614008,0.2438933,0.4121198
3554,0.4639383,0.2517883,0.4111691
3556,0.466462,0.2571706,0.4102162
3559,0.466462,0.2571706,0.4102162
3561,0.4718838,0.2690692,0.4083038
3563,0.4718838,0.2690692,0.4083038
3566,0.4743652,0.2741124,0.4073442
3568,0.4849715,0.2934199,0.4059006
3570,0.4849715,0.2934199,0.4059006
3573,0.4889896,0.3006659,0.4049353
3575,0.4889896,0.3006659,0.4049353
3577,0.4764233,0.276953,0.4078243
3579,0.4764233,0.276953,0.4078243
3582,0.4718838,0.2676108,0.4083038
3585,0.4760123,0.2733977,0.4087828
3587,0.4792896,0.2783625,0.4092611
3590,0.4821389,0.2825486,0.409739
3592,0.4821389,0.2825486,0.409739
3594,0.4873863,0.2914124,0.4102162
3597,0.4961402,0.3051875,0.4102162
3599,0.4961402,0.3051875,0.4102162
3601,0.4921804,0.2967354,0.4121198
3604,0.4921804,0.2967354,0.4121198
3606,0.4889896,0.289391,0.4135417
3608,0.4889896,0.289391,0.4135417
3611,0.4937682,0.2954137,0.4149588
3613,0.4953507,0.2973941,0.4159008
3615,0.4969283,0.2980514,0.416371
3618,0.4929749,0.2900664,0.4182466
3620,0.4929749,0.2900664,0.4182466
3622,0.4897892,0.2825486,0.4191812
3625,0.4933717,0.2887141,0.4191812
3628,0.4933717,0.2887141,0.4191812
3630,0.4949555,0.2914124,0.4191812
3633,0.4949555,0.2914124,0.4191812
3635,0.4917827,0.2839303,0.4205793
3637,0.4917827,0.2839303,0.4205793
3640,0.4869847,0.2719625,0.4228991
3642,0.4901886,0.2776587,0.4228991
3644,0.4901886,0.2776587,0.4228991
3647,0.4953507,0.2859903,0.4233615
3649,0.4953507,0.2859903,0.4233615
3651,0.4996771,0.2934199,0.4233615
3654,0.4996771,0.2934199,0.4233615
3656,0.5066768,0.3045456,0.4242849
3658,0.5089886,0.3064671,0.4247459
3661,0.5089886,0.3064671,0.4247459
3663,0.5043544,0.2967354,0.4270431
3665,0.5043544,0.2967354,0.4270431
3667,0.5039662,0.2920831,0.4297835
3671,0.5070629,0.2954137,0.4311472
3673,0.5070629,0.2954137,0.4311472
3675,0.5074486,0.2927522,0.4338616
3678,0.5074486,0.2927522,0.4338616
3680,0.5059038,0.2866737,0.4356619
3682,0.5059038,0.2866737,0.4356619
3685,0.5043544,0.3522151,0.4247459
3687,0.5777687,0.4149588,0.4140146
3689,0.5777687,0.4149588,0.4140146
3692,0.5794597,0.4168407,0.4135417
3694,0.5794597,0.4168407,0.4135417
3696,0.5814822,0.4201138,0.4130683
3699,0.5685511,0.3995845,0.416371
3701,0.5685511,0.3995845,0.416371
3703,0.5588315,0.382573,0.4191812
3706,0.5588315,0.382573,0.4191812
3708,0.5388666,0.3477423,0.4247459
3710,0.5388666,0.3477423,0.4247459
3714,0.5293413,0.329838,0.427501
3716,0.5169988,0.3077414,0.4297835
3718,0.5169988,0.3077414,0.4297835
3721,0.5000685,0.2733977,0.4334104
3723,0.5000685,0.2733977,0.4334104
3725,0.4941643,0.2601963,0.4356619
3728,0.4897892,0.2525642,0.4361108
3730,0.4897892,0.2525642,0.4361108
3732,0.4833549,0.2406627,0.4361108
3735,0.4833549,0.2406627,0.4361108
3737,0.4805128,0.235734,0.4361108
3739,0.4805128,0.235734,0.4361108
3742,0.4784724,0.2315465,0.4361108
3744,0.4739525,0.2255535,0.4338616
3746,0.4739525,0.2255535,0.4338616
3749,0.4722982,0.2238118,0.4334104
3751,0.4722982,0.2238118,0.4334104
3753,0.4693892,0.2211734,0.4316007
3756,0.4693892,0.2211734,0.4316007
3759,0.4685547,0.220287,0.4311472
3761,0.4673002,0.2193969,0.4297835
3763,0.4673002,0.2193969,0.4297835
3766,0.4668813,0.2220564,0.4288719
3768,0.4668813,0.2220564,0.4288719
3770,0.4668813,0.2229358,0.4279585
3773,0.4635163,0.2185032,0.4261257
3775,0.4635163,0.2185032,0.4261257
3777,0.4614008,0.2139789,0.4252063
3780,0.4614008,0.2139789,0.4252063
3782,0.4558544,0.2046302,0.4242849
3784,0.4558544,0.2046302,0.4242849
3787,0.4541341,0.199792,0.4238235
3789,0.466462,0.2438933,0.4111691
3791,0.466462,0.2438933,0.4111691
3794,0.4841639,0.2866737,0.4010509
3796,0.4841639,0.2866737,0.4010509
3799,0.5028,0.3250574,0.392669
3802,0.4973219,0.3189811,0.3901695
3804,0.4973219,0.3189811,0.3901695
3806,0.4953507,0.3177519,0.3886621
3809,0.4953507,0.3177519,0.3886621
3811,0.4764233,0.2859903,0.3911712
3813,0.4764233,0.2859903,0.3911712
3816,0.4698059,0.2748253,0.3921704
3818,0.4897892,0.3171355,0.3820612
3820,0.4897892,0.3171355,0.3820612
3823,0.5089886,0.3538778,0.3732531
3825,0.5089886,0.3538778,0.3732531
3827,0.5101407,0.3711503,0.3593647
3830,0.5101407,0.3711503,0.3593647
3832,0.5109072,0.3789758,0.3533245
3834,0.5560232,0.450674,0.3345502
3837,0.5560232,0.450674,0.3345502
3840,0.598725,0.5120549,0.3189811
3842,0.598725,0.5120549,0.3189811
3844,0.5993783,0.5207698,0.3077414
3847,0.6006827,0.5260038,0.302612
3849,0.6006827,0.5260038,0.302612
3851,0.6431577,0.5801346,0.2887141
3854,0.6431577,0.5801346,0.2887141
3856,0.680988,0.6268256,0.2762456
3858,0.680988,0.6268256,0.2762456
3861,0.6608641,0.6061952,0.2762456
3863,0.6339648,0.5784457,0.2733977
3865,0.6339648,0.5784457,0.2733977
3868,0.6016592,0.5432066,0.2783625
3870,0.6016592,0.5432066,0.2783625
3872,0.5767518,0.5151029,0.2818553
3875,0.5457222,0.4792896,0.2880355
3877,0.5457222,0.4792896,0.2880355
3879,0.5024107,0.4284154,0.2960753
3883,0.5024107,0.4284154,0.2960753
3885,0.4833549,0.4039677,0.301316
3887,0.4833549,0.4039677,0.301316
3890,0.4554249,0.3695653,0.3083766
3892,0.4445539,0.3533245,0.3121605
3894,0.4445539,0.3533245,0.3121605
3897,0.4284154,0.3304307,0.3183671
3899,0.4284154,0.3304307,0.3183671
3901,0.4242849,0.3220336,0.3220336
3904,0.4210443,0.315279,0.3250574
3906,0.4210443,0.315279,0.3250574
3908,0.4215088,0.3000144,0.3403488
3911,0.4215088,0.3000144,0.3403488
3913,0.4238235,0.2914124,0.3505445
3915,0.4238235,0.2914124,0.3505445
3918,0.4238235,0.2712421,0.365305
3920,0.4265846,0.2422834,0.3881583
3922,0.4265846,0.2422834,0.3881583
3926,0.4311472,0.2281412,0.4010509
3928,0.4311472,0.2281412,0.4010509
3930,0.4352126,0.2167048,0.4116447
3932,0.4352126,0.2167048,0.4116447
3935,0.4352126,0.2167048,0.4116447
3937,0.4436728,0.2065338,0.4247459
3939,0.4436728,0.2065338,0.4247459
3942,0.4528397,0.1988102,0.4374548
3944,0.4528397,0.1988102,0.4374548
3946,0.4609765,0.1938267,0.4484978
3949,0.4825446,0.220287,0.453703
3951,0.4825446,0.220287,0.453703
3953,0.5016313,0.2579304,0.4502396
3956,0.5016313,0.2579304,0.4502396
3958,0.5267473,0.2907402,0.4554249
3960,0.5267473,0.2907402,0.4554249
3963,0.5308178,0.289391,0.4618246
3965,0.5344914,0.2866737,0.4668813
3968,0.5344914,0.2866737,0.4668813
3971,0.5282311,0.2624426,0.4751895
3973,0.5282311,0.2624426,0.4751895
3975,0.5267473,0.2533378,0.4780633
3978,0.5695826,0.3477423,0.4626713
3980,0.5695826,0.3477423,0.4626713
3982,0.5914913,0.386643,0.4571402
3985,0.5914913,0.386643,0.4571402
3987,0.6661724,0.5028,0.4419051
3989,0.6661724,0.5028,0.4419051
3992,0.6988559,0.5485832,0.4361108
3994,0.7370135,0.5993783,0.4302385
3996,0.7370135,0.5993783,0.4302385
3999,0.7979487,0.6749268,0.4252063
4001,0.7979487,0.6749268,0.4252063
4003,0.8213912,0.7027649,0.4247459
4006,0.8213912,0.7027649,0.4247459
4008,0.8625273,0.7504317,0.4238235
4011,0.8724523,0.7600183,0.427501
4013,0.8724523,0.7600183,0.427501
4016,0.8991814,0.7893192,0.4288719
4018,0.8991814,0.7893192,0.4288719
4020,0.9149297,0.8079404,0.4279585
4023,0.9297802,0.8254311,0.4270431
4025,0.9297802,0.8254311,0.4270431
4027,0.9516218,0.8511084,0.4242849
4030,0.9516218,0.8511084,0.4242849
4032,0.9624583,0.8638874,0.4228991
4034,0.9624583,0.8638874,0.4228991
4037,0.9711614,0.8744686,0.4210443
4039,0.9769872,0.881156,0.4201138
4041,0.9769872,0.881156,0.4201138
4044,0.9771874,0.8818219,0.4196478
4046,0.9771874,0.8818219,0.4196478
4048,0.9831765,0.8886743,0.4196478
4051,0.9952432,0.9022229,0.4187142
4054,0.9952432,0.9022229,0.4187142
4056,1.017795,0.9276733,0.4173099
4059,1.017795,0.9276733,0.4173099
4061,1.012784,0.9215358,0.4187142
4063,1.012784,0.9215358,0.4187142
4066,1.009688,0.9174925,0.4201138
4068,1.01375,0.9219604,0.4201138
4070,1.01375,0.9219604,0.4201138
4073,1.023929,0.9333511,0.4196478
4075,1.023929,0.9333511,0.4196478
4077,1.028886,0.9396197,0.4182466
4080,1.034387,0.9462603,0.4168407
4082,1.036843,0.949151,0.4159008
4084,1.040799,0.9536759,0.4154301
4087,1.040799,0.9536759,0.4154301
4089,1.044927,0.9591998,0.4140146
4091,1.044927,0.9591998,0.4140146
4094,1.046237,0.9606267,0.4135417
4097,1.051274,0.9661109,0.4130683
4099,1.051274,0.9661109,0.4130683
4101,1.051647,0.9667184,0.4130683
4104,1.051647,0.9667184,0.4130683
4106,1.053134,0.9683364,0.4130683
4108,1.053134,0.9683364,0.4130683
4111,1.049598,0.964895,0.4125943
4113,1.049784,0.9653005,0.4125943
4115,1.049784,0.9653005,0.4125943
4118,1.033061,0.9464671,0.414487
4120,1.033061,0.9464671,0.414487
4122,1.010075,0.9206861,0.4154301
4125,1.01085,0.9215358,0.4154301
4127,1.01085,0.9215358,0.4154301
4129,1.012204,0.923233,0.4154301
4132,1.012204,0.923233,0.4154301
4134,1.018756,0.930832,0.414487
4136,1.018756,0.930832,0.414487
4140,1.023547,0.9362817,0.4135417
4142,1.011237,0.922597,0.4140146
4144,1.011237,0.922597,0.4140146
4147,0.993669,0.9033066,0.4140146
4149,0.993669,0.9033066,0.4140146
4151,0.9999508,0.9106421,0.4125943
4154,1.005415,0.9172792,0.410693
4156,1.005415,0.9172792,0.410693
4158,1.015871,0.9291486,0.4102162
4161,1.015871,0.9291486,0.4102162
4163,1.032872,0.948326,0.4087828
4165,1.032872,0.948326,0.4087828
4168,1.024311,0.9387863,0.409739
4170,1.01818,0.9314623,0.4102162
4172,1.01818,0.9314623,0.4102162
4175,1.004831,0.916639,0.410693
4177,1.004831,0.916639,0.410693
4179,0.9944565,0.9052542,0.4111691
4183,0.9841712,0.8941622,0.4102162
4185,0.9841712,0.8941622,0.4102162
4187,0.9759852,0.8855863,0.409739
4189,0.9759852,0.8855863,0.409739
4192,0.9759852,0.8855863,0.409739
4194,0.9759852,0.8855863,0.409739
4196,0.966516,0.8758101,0.4078243
4199,0.957362,0.8670527,0.4054182
4201,0.957362,0.8670527,0.4054182
4203,0.9503872,0.8598006,0.403483
4206,0.9503872,0.8598006,0.403483
4208,0.9450188,0.8547791,0.4025119
4210,0.9450188,0.8547791,0.4025119
4213,0.9306217,0.8369665,0.4063823
4215,0.9211111,0.826142,0.4063823
4217,0.9211111,0.826142,0.4063823
4220,0.913217,0.8170919,0.4063823
4222,0.913217,0.8170919,0.4063823
4225,0.906766,0.8098756,0.4073442
4228,0.8943809,0.7942618,0.4102162
4230,0.8943809,0.7942618,0.4102162
4232,0.8844808,0.7808449,0.414487
4235,0.8844808,0.7808449,0.414487
4237,0.8717791,0.7625886,0.4210443
4239,0.8717791,0.7625886,0.4210443
4242,0.8520276,0.7327532,0.4329587
4244,0.8520276,0.7327532,0.4329587
4246,0.8520276,0.7327532,0.4329587
4249,0.8355626,0.7083117,0.4419051
4251,0.8355626,0.7083117,0.4419051
4253,0.828271,0.6982958,0.4445539
4256,0.8225815,0.6895542,0.4471871
4258,0.8225815,0.6895542,0.4471871
4260,0.8280347,0.7022079,0.4379019
4263,0.8280347,0.7022079,0.4379019
4265,0.8263788,0.7013714,0.4361108
4268,0.8263788,0.7013714,0.4361108
4271,0.8249568,0.7005339,0.4352126
4273,0.82377,0.6996954,0.4343124
4275,0.82377,0.6996954,0.4343124
4277,0.8303944,0.7138155,0.4242849
4280,0.8303944,0.7138155,0.4242849
4282,0.8327476,0.7187329,0.4205793
4284,0.8327476,0.7187329,0.4205793
4287,0.776825,0.6452838,0.4311472
4289,0.7241574,0.5733491,0.4410186
4291,0.7241574,0.5733491,0.4410186
4294,0.7168246,0.5637122,0.4414621
4296,0.7168246,0.5637122,0.4414621
4298,0.7102429,0.5542608,0.4423477
4301,0.6404136,0.4476244,0.4562834
4303,0.6404136,0.4476244,0.4562834
4305,0.6158028,0.4063823,0.4618246
4308,0.6158028,0.4063823,0.4618246
4311,0.63025,0.4392403,0.450674
4313,0.63025,0.4392403,0.450674
4316,0.6345818,0.4498048,0.4467493
4318,0.6129363,0.414487,0.4502396
4320,0.6129363,0.414487,0.4502396
4323,0.5808088,0.358274,0.4558544
4325,0.5808088,0.358274,0.4558544
4327,0.5598809,0.3165179,0.4605518
4330,0.53008,0.2478722,0.4677188
4332,0.53008,0.2478722,0.4677188
4334,0.5215207,0.2264194,0.4693892
4337,0.5215207,0.2264194,0.4693892
4339,0.5143426,0.2046302,0.4710537
4341,0.5143426,0.2046302,0.4710537
4344,0.5066768,0.183454,0.4714689
4346,0.5004597,0.165511,0.4727124
4348,0.5004597,0.165511,0.4727124
4352,0.4905876,0.1384764,0.4706381
4354,0.4905876,0.1384764,0.4706381
4356,0.4869847,0.1251145,0.4706381
4359,0.4821389,0.1153499,0.468137
4361,0.4821389,0.1153499,0.468137
4363,0.4751895,0.09691329,0.4652019
4365,0.4751895,0.09691329,0.4652019
4368,0.4677188,0.1119058,0.4541341
4370,0.4677188,0.1119058,0.4541341
4372,0.4618246,0.1203313,0.4454334
4375,0.4515415,0.1557664,0.4242849
4377,0.4515415,0.1557664,0.4242849
4379,0.4480613,0.166689,0.416371
4382,0.4480613,0.166689,0.416371
4384,0.4414621,0.1907741,0.3990945
4386,0.4414621,0.1907741,0.3990945
4389,0.4392403,0.1978235,0.393167
4391,0.4396856,0.2139789,0.3846134
4393,0.4396856,0.2139789,0.3846134
4397,0.4392403,0.2349025,0.3727285
4399,0.4392403,0.2349025,0.3727285
4401,0.4401304,0.2454926,0.3669084
4404,0.4401304,0.2579304,0.358274
4406,0.4401304,0.2579304,0.358274
4408,0.4414621,0.2654082,0.3538778
4411,0.4414621,0.2654082,0.3538778
4413,0.4423477,0.2755364,0.3488659
4415,0.4423477,0.2755364,0.3488659
4418,0.4432315,0.2783625,0.3471792
4420,0.4427898,0.2797648,0.3460502
4422,0.4427898,0.2797648,0.3460502
4425,0.4414621,0.2783625,0.3454843
4427,0.4414621,0.2783625,0.3454843
4429,0.4405747,0.2762456,0.3454843
4432,0.4419051,0.2690692,0.3538778
4434,0.4419051,0.2690692,0.3538778
4436,0.4445539,0.2646699,0.3609945
4440,0.4445539,0.2646699,0.3609945
4442,0.4484978,0.2517883,0.373777
4444,0.4484978,0.2517883,0.373777
4447,0.4511079,0.2454926,0.3805216
4449,0.4524074,0.2398483,0.3856296
4451,0.4524074,0.2398483,0.3856296
4453,0.4476244,0.1968319,0.4039677
4456,0.4476244,0.1968319,0.4039677
4458,0.4463111,0.1802258,0.4102162
4460,0.4463111,0.1802258,0.4102162
4463,0.4476244,0.1398823,0.427501
4465,0.4515415,0.1235407,0.4365593
4467,0.4515415,0.1235407,0.4365593
4470,0.4584226,0.09891172,0.4498048
4472,0.4584226,0.09891172,0.4498048
4474,0.4643598,0.09065409,0.4579955
4477,0.4739525,0.07661668,0.4706381
4480,0.4739525,0.07661668,0.4706381
4482,0.4805128,0.07132626,0.4776538
4485,0.4805128,0.07132626,0.4776538
4487,0.4857778,0.0656106,0.4841639
4489,0.4857778,0.0656106,0.4841639
4492,0.4961402,0.05934703,0.4949555
4494,0.501241,0.05934703,0.5004597
4496,0.501241,0.05934703,0.5004597
4499,0.5020211,0.09487279,0.4941643
4501,0.5020211,0.09487279,0.4941643
4503,0.5082192,0.1519511,0.4861804
4506,0.5453635,0.2776587,0.4693892
4508,0.5453635,0.2776587,0.4693892
4510,0.5743721,0.3414966,0.4605518
4513,0.5743721,0.3414966,0.4605518
4515,0.6032831,0.3961419,0.453703
4517,0.6032831,0.3961419,0.453703
4520,0.6676395,0.5082192,0.4316007
4523,0.6966124,0.5524929,0.4228991
4525,0.6966124,0.5524929,0.4228991
4528,0.7509531,0.6249498,0.4159008
4530,0.7509531,0.6249498,0.4159008
4532,0.7737964,0.6543178,0.4121198
4535,0.8101172,0.7024865,0.403483
4537,0.8101172,0.7024865,0.403483
4539,0.826142,0.7230757,0.3990945
4541,0.826142,0.7230757,0.3990945
4544,0.845804,0.749649,0.3921704
4546,0.845804,0.749649,0.3921704
4548,0.8556943,0.762332,0.3881583
4551,0.8598006,0.7687222,0.3861367
4553,0.8598006,0.7687222,0.3861367
4555,0.8715547,0.7840959,0.3815487
4558,0.8715547,0.7840959,0.3815487
4560,0.8742447,0.7880787,0.3794918
4562,0.8742447,0.7880787,0.3794918
4566,0.8827091,0.7994187,0.3748225
4568,0.8827091,0.7999081,0.3743001
4570,0.8827091,0.7999081,0.3743001
4573,0.8864697,0.8050289,0.3722032
4575,0.8864697,0.8050289,0.3722032
4577,0.8853652,0.804056,0.3716771
4580,0.8860281,0.8052719,0.3706227
4582,0.8860281,0.8052719,0.3706227
4584,0.8855863,0.8052719,0.3690354
4587,0.8855863,0.8052719,0.3690354
4589,0.886911,0.806971,0.3685048
4591,0.886911,0.806971,0.3685048
4594,0.8888945,0.8096339,0.3669084
4596,0.8897746,0.8108415,0.3669084
4598,0.8897746,0.8108415,0.3669084
4601,0.9080599,0.8322775,0.3636945
4603,0.9080599,0.8322775,0.3636945
4605,0.9168525,0.8420942,0.3615361
4609,0.9110718,0.8362648,0.3615361
4611,0.9110718,0.8362648,0.3615361
4613,0.9106421,0.8357967,0.3609945
4616,0.9106421,0.8357967,0.3609945
4618,0.8840382,0.8011303,0.373777
4620,0.8840382,0.8011303,0.373777
4622,0.8755867,0.7895671,0.3784592
4625,0.8888945,0.8028382,0.3815487
4627,0.8888945,0.8028382,0.3815487
4629,0.901789,0.8161334,0.3835945
4632,0.901789,0.8161334,0.3835945
4634,0.901789,0.8161334,0.3835945
4636,0.9268292,0.8432553,0.3856296
4639,0.9268292,0.8432553,0.3856296
4641,0.9427382,0.858434,0.3916712
4643,0.9427382,0.858434,0.3916712
4646,0.9693463,0.884702,0.4015385
4648,0.9693463,0.884702,0.4015385
4651,0.9628648,0.8775957,0.4005627
4654,0.9581792,0.8724523,0.4000739
4656,0.9581792,0.8724523,0.4000739
4658,0.9460534,0.8600281,0.3966355
4661,0.9460534,0.8600281,0.3966355
4663,0.9392031,0.8536337,0.3941611
4665,0.9392031,0.8536337,0.3941611
4668,0.9283059,0.842791,0.3891652
4670,0.9236568,0.8388348,0.3871488
4672,0.9236568,0.8388348,0.3871488
4675,0.9208986,0.8364988,0.3851218
4677,0.9208986,0.8364988,0.3851218
4679,0.9259842,0.8413968,0.3856296
4682,0.9236568,0.8397673,0.3835945
4684,0.9236568,0.8397673,0.3835945
4686,0.922597,0.839068,0.3830841
4689,0.922597,0.839068,0.3830841
4691,0.9221727,0.8386015,0.3820612
4694,0.9221727,0.8386015,0.3820612
4697,0.9221727,0.8386015,0.3820612
4699,0.9206861,0.8374339,0.3800071
4701,0.9206861,0.8374339,0.3800071
4704,0.91941,0.8367326,0.3789758
4706,0.91941,0.8367326,0.3789758
4708,0.9185583,0.8364988,0.3774237
4710,0.9164255,0.835094,0.3753442
4713,0.9164255,0.835094,0.3753442
4715,0.9151434,0.8348597,0.3743001
4717,0.9151434,0.8348597,0.3743001
4720,0.9149297,0.835094,0.3722032
4722,0.9149297,0.8355626,0.3722032
4724,0.8838168,0.7979487,0.3789758
4727,0.8586619,0.7669383,0.3841043
4729,0.8586619,0.7669383,0.3841043
4731,0.8199606,0.7179157,0.3946573
4734,0.8199606,0.7179157,0.3946573
4737,0.8050289,0.6982958,0.3995845
4739,0.8050289,0.6982958,0.3995845
4742,0.7927822,0.6815624,0.403483
4744,0.7981939,0.6923862,0.3956476
4746,0.7981939,0.6923862,0.3956476
4749,0.7999081,0.6957693,0.393167
4751,0.7999081,0.6957693,0.393167
4753,0.7666831,0.6543178,0.3981127
4756,0.7540734,0.6382713,0.4000739
4758,0.7540734,0.6382713,0.4000739
4760,0.762332,0.6543178,0.3896677
4763,0.762332,0.6543178,0.3896677
4765,0.7651502,0.659382,0.3861367
4767,0.7651502,0.659382,0.3861367
4770,0.7558876,0.649214,0.3856296
4772,0.7412493,0.6327289,0.3851218
4774,0.7412493,0.6327289,0.3851218
4777,0.7446731,0.6404136,0.3789758
4780,0.7446731,0.6404136,0.3789758
4782,0.6915378,0.5753932,0.3820612
4785,0.6474031,0.5162413,0.3896677
4787,0.6474031,0.5162413,0.3896677
4789,0.564406,0.393167,0.4054182
4792,0.564406,0.393167,0.4054182
4794,0.5286014,0.3304307,0.4135417
4796,0.5286014,0.3304307,0.4135417
4798,0.5024107,0.276953,0.4210443
4801,0.4528397,0.1594904,0.4261257
4803,0.4528397,0.1594904,0.4261257
4805,0.4410186,0.1153499,0.4288719
4808,0.4410186,0.1153499,0.4288719
4810,0.4352126,0.1153499,0.4210443
4812,0.4302385,0.1136409,0.4149588
4815,0.4302385,0.1136409,0.4149588
4817,0.4387946,0.2121421,0.3835945
4819,0.4387946,0.2121421,0.3835945
4823,0.4467493,0.2470816,0.3711503
4825,0.4467493,0.2470816,0.3711503
4827,0.4558544,0.272681,0.364769
4830,0.463094,0.2920831,0.3588198
4832,0.463094,0.2920831,0.3588198
4834,0.4889896,0.3494264,0.3432113
4837,0.4889896,0.3494264,0.3432113
4839,0.5066768,0.382573,0.3345502
4841,0.5066768,0.382573,0.3345502
4844,0.4588492,0.3000144,0.3477423
4846,0.4423477,0.2668786,0.3522151
4848,0.4423477,0.2668786,0.3522151
4851,0.4554249,0.2954137,0.3471792
4853,0.4554249,0.2954137,0.3471792
4855,0.4756011,0.3351346,0.3374619
4858,0.4977152,0.3727285,0.329838
4860,0.4977152,0.3727285,0.329838
4862,0.5166202,0.4029978,0.3232465
4866,0.5166202,0.4029978,0.3232465
4868,0.5549665,0.4597013,0.3134116
4870,0.5549665,0.4597013,0.3134116
4873,0.5743721,0.4857778,0.3083766
4875,0.5947903,0.5112901,0.3058279
4877,0.5947903,0.5112901,0.3058279
4880,0.6255757,0.5503638,0.3000144
4882,0.6255757,0.5503638,0.3000144
4884,0.6351982,0.5626699,0.2980514
4886,0.6431577,0.5733491,0.2947506
4889,0.6431577,0.5733491,0.2947506
4891,0.6573014,0.5924829,0.2900664
4893,0.6573014,0.5924829,0.2900664
4896,0.6635236,0.6006827,0.2880355
4898,0.6635236,0.6006827,0.2880355
4900,0.6691033,0.6081289,0.2873554
4903,0.6783969,0.6199199,0.2839303
4905,0.6783969,0.6199199,0.2839303
4908,0.6596788,0.5957764,0.2920831
4911,0.6596788,0.5957764,0.2920831
4913,0.6449805,0.5764125,0.3000144
4915,0.6449805,0.5764125,0.3000144
4918,0.6333472,0.5605795,0.3058279
4920,0.633656,0.5609285,0.3058279
4922,0.633656,0.5609285,0.3058279
4925,0.6205508,0.5435666,0.311533
4927,0.6205508,0.5435666,0.311533
4929,0.6010084,0.5166202,0.3183671
4932,0.6068404,0.5245137,0.3171355
4934,0.6068404,0.5245137,0.3171355
4936,0.6113381,0.530449,0.315899
4939,0.6113381,0.530449,0.315899
4941,0.6246366,0.5489398,0.3102743
4943,0.6246366,0.5489398,0.3102743
4946,0.6327289,0.5598809,0.3077414
4948,0.6265134,0.5514293,0.3102743
4951,0.6265134,0.5514293,0.3102743
4954,0.6161205,0.5370479,0.3140353
4956,0.6161205,0.5370479,0.3140353
4958,0.6074851,0.5256317,0.3177519
4961,0.6170725,0.5381398,0.3146578
4963,0.6170725,0.5381398,0.3146578
4965,0.6205508,0.5424856,0.3134116
4968,0.6205508,0.5424856,0.3134116
4970,0.6364292,0.5637122,0.3064671
4972,0.6364292,0.5637122,0.3064671
4974,0.6425489,0.5716401,0.3045456
4977,0.6558113,0.5885065,0.3006659
4979,0.6558113,0.5885065,0.3006659
4981,0.6611602,0.5947903,0.2987072
4984,0.6611602,0.5947903,0.2987072
4986,0.6696879,0.6058724,0.2960753
4988,0.6731851,0.6103771,0.2940859
4992,0.6731851,0.6103771,0.2940859
4994,0.6746368,0.6122975,0.2927522
4996,0.6746368,0.6122975,0.2927522
4999,0.675796,0.6148488,0.2907402
5001,0.675796,0.6148488,0.2907402
5003,0.6760855,0.615485,0.2900664
5006,0.6570037,0.5908293,0.2973941
5008,0.6570037,0.5908293,0.2973941
5010,0.6416347,0.5702693,0.3039024
5013,0.6416347,0.5702693,0.3039024
5015,0.6293179,0.5528469,0.309643
5017,0.6293179,0.5528469,0.309643
5020,0.6333472,0.55778,0.309643
5022,0.6345818,0.5591815,0.309643
5024,0.6345818,0.5591815,0.309643
5027,0.6094146,0.5218958,0.3232465
5029,0.6094146,0.5218958,0.3232465
5031,0.6000308,0.5078341,0.3286494
5035,0.6110179,0.5211454,0.3268584
5037,0.6110179,0.5211454,0.3268584
5039,0.6148488,0.5260038,0.3262592
5042,0.6148488,0.5260038,0.3262592
5044,0.628073,0.5450047,0.3202056
5046,0.628073,0.5450047,0.3202056
5049,0.6327289,0.5521386,0.3177519
5051,0.6410245,0.5630175,0.3146578
5053,0.6410245,0.5630175,0.3146578
5056,0.652521,0.5784457,0.3102743
5058,0.652521,0.5784457,0.3102743
5060,0.6581939,0.5858405,0.3083766
5062,0.6626383,0.5911604,0.3071049
5065,0.6626383,0.5911604,0.3071049
5067,0.6667597,0.5970887,0.3058279
5069,0.6667597,0.5970887,0.3058279
5072,0.6702721,0.6016592,0.3039024
5074,0.6702721,0.6016592,0.3039024
5076,0.6852845,0.6173896,0.3051875
5080,0.690405,0.6227542,0.3051875
5082,0.690405,0.6227542,0.3051875
5084,0.6946434,0.6277614,0.3039024
5087,0.6946434,0.6277614,0.3039024
5089,0.7013714,0.6348901,0.3039024
5091,0.7038778,0.6370438,0.3045456
5094,0.7038778,0.6370438,0.3045456
5096,0.7069291,0.640108,0.3051875
5098,0.7069291,0.640108,0.3051875
5101,0.7063754,0.6404136,0.3039024
5103,0.7063754,0.6404136,0.3039024
5105,0.7063754,0.6404136,0.3032579
5108,0.7203645,0.65342,0.3071049
5110,0.7203645,0.65342,0.3071049
5112,0.7324861,0.6644077,0.3121605
5115,0.7324861,0.6644077,0.3121605
5117,0.7446731,0.675796,0.315279
5120,0.7446731,0.675796,0.315279
5123,0.7465102,0.6775311,0.3146578
5125,0.7480813,0.6798376,0.3146578
5127,0.7480813,0.6798376,0.3146578
5130,0.7715172,0.7016503,0.3220336
5132,0.7715172,0.7016503,0.3220336
5134,0.7656615,0.6980155,0.315899
5137,0.7641266,0.6974546,0.3140353
5139,0.7641266,0.6974546,0.3140353
5141,0.7576976,0.6923862,0.3102743
5144,0.7576976,0.6923862,0.3102743
5146,0.7491269,0.6858553,0.3051875
5148,0.7491269,0.6858553,0.3051875
5150,0.6772422,0.5983981,0.3202056
5153,0.6211812,0.5252593,0.3316129
5155,0.6211812,0.5252593,0.3316129
5157,0.57743,0.464781,0.3426407
5160,0.5881739,0.4751895,0.3460502
5163,0.5967609,0.4829499,0.3499859
5165,0.6032831,0.4885893,0.3527702
5168,0.6032831,0.4885893,0.3527702
5170,0.6314908,0.5293413,0.343781
5172,0.6314908,0.5293413,0.343781
5175,0.646193,0.5514293,0.3374619
5177,0.646193,0.5514293,0.3374619
5179,0.6581939,0.5688952,0.3316129
5182,0.6769533,0.5964329,0.3214254
5184,0.6769533,0.5964329,0.3214254
5186,0.6841414,0.6071628,0.3171355
5189,0.6841414,0.6071628,0.3171355
5191,0.6898379,0.615167,0.3146578
5193,0.6921035,0.6196041,0.3102743
5196,0.6935157,0.6233823,0.3071049
5198,0.694925,0.6262009,0.3051875
5200,0.694925,0.6262009,0.3051875
5203,0.7008132,0.6348901,0.3006659
5206,0.7008132,0.6348901,0.3006659
5208,0.7030433,0.6379647,0.2993615
5211,0.7049889,0.6407191,0.2987072
5213,0.7049889,0.6407191,0.2987072
5215,0.7074825,0.6440698,0.2973941
5218,0.7074825,0.6440698,0.2973941
5220,0.707759,0.6449805,0.2960753
5222,0.707759,0.6449805,0.2960753
5225,0.7099674,0.6474031,0.2960753
5227,0.711894,0.6483091,0.2967354
5229,0.711894,0.6483091,0.2967354
5231,0.7127182,0.6495153,0.2967354
5234,0.7127182,0.6495153,0.2967354
5236,0.7135413,0.6498165,0.2980514
5238,0.7138155,0.6498165,0.2980514
5241,0.7138155,0.6498165,0.2980514
5243,0.7162784,0.6528208,0.2980514
5245,0.7162784,0.6528208,0.2980514
5249,0.7170975,0.6537194,0.2987072
5251,0.7170975,0.6537194,0.2987072
5253,0.7151849,0.651921,0.2973941
5256,0.7113441,0.6495153,0.2960753
5258,0.7113441,0.6495153,0.2960753
5260,0.7088641,0.646193,0.2967354
5263,0.7088641,0.646193,0.2967354
5265,0.7033216,0.6410245,0.2960753
5267,0.7010924,0.6388841,0.2954137
5270,0.7010924,0.6388841,0.2954137
5272,0.6991359,0.6370438,0.2947506
5274,0.6991359,0.6370438,0.2947506
5277,0.6982958,0.6361217,0.2947506
5279,0.6982958,0.6361217,0.2947506
5281,0.6977351,0.635814,0.2954137
5284,0.6974546,0.6355062,0.2954137
5286,0.6974546,0.6355062,0.2954137
5288,0.6974546,0.6355062,0.2954137
5292,0.6974546,0.6355062,0.2954137
5294,0.697174,0.6348901,0.2967354
5296,0.697174,0.6348901,0.2967354
5299,0.6968932,0.6339648,0.2973941
5301,0.6943616,0.6318005,0.2973941
5303,0.6943616,0.6318005,0.2973941
5306,0.6915378,0.6286958,0.2973941
5308,0.6915378,0.6286958,0.2973941
5310,0.6887025,0.6258884,0.2973941
5313,0.6864257,0.6233823,0.2960753
5315,0.6864257,0.6233823,0.2960753
5317,0.6884183,0.6246366,0.2987072
5319,0.6884183,0.6246366,0.2987072
5322,0.6892704,0.6249498,0.2993615
5324,0.6892704,0.6249498,0.2993615
5326,0.6906884,0.6258884,0.301316
5329,0.6915378,0.6258884,0.302612
5331,0.6915378,0.6258884,0.302612
5334,0.6921035,0.6255757,0.3039024
5337,0.6921035,0.6255757,0.3039024
5339,0.6923862,0.6255757,0.3045456
5341,0.6923862,0.6255757,0.3045456
5344,0.6923862,0.6255757,0.3045456
5346,0.6952065,0.6277614,0.3051875
5348,0.6952065,0.6277614,0.3051875
5351,0.6977351,0.63025,0.3064671
5353,0.6977351,0.63025,0.3064671
5355,0.7013714,0.633656,0.3071049
5358,0.7005339,0.6324196,0.3083766
5360,0.7005339,0.6324196,0.3083766
5362,0.699975,0.6314908,0.3083766
5365,0.699975,0.6314908,0.3083766
5367,0.6982958,0.6293179,0.3083766
5369,0.6974546,0.629007,0.3090104
5372,0.6974546,0.629007,0.3090104
5374,0.6988559,0.6299395,0.3090104
5377,0.6988559,0.6299395,0.3090104
5380,0.7002546,0.6318005,0.3090104
5382,0.7002546,0.6318005,0.3090104
5384,0.7016503,0.6339648,0.3083766
5387,0.7024865,0.6345818,0.3077414
5389,0.7024865,0.6345818,0.3077414
5391,0.7027649,0.6351982,0.3077414
5394,0.7027649,0.6351982,0.3077414
5396,0.7027649,0.6361217,0.3058279
5398,0.7027649,0.6361217,0.3058279
5401,0.7024865,0.6364292,0.3051875
5403,0.7022079,0.6367366,0.3032579
5405,0.7022079,0.6367366,0.3032579
5407,0.7013714,0.6367366,0.302612
5410,0.7013714,0.6367366,0.302612
5412,0.7005339,0.6364292,0.3006659
5414,0.7002546,0.6367366,0.2993615
5417,0.7002546,0.6367366,0.2993615
5420,0.699975,0.6370438,0.2980514
5422,0.699975,0.6370438,0.2980514
5425,0.6769533,0.607807,0.3058279
5427,0.6769533,0.607807,0.3058279
5429,0.6581939,0.5841681,0.3121605
5432,0.6413296,0.5623221,0.3165179
5434,0.6413296,0.5623221,0.3165179
5436,0.6394964,0.5605795,0.315899
5439,0.6394964,0.5605795,0.315899
5441,0.6419396,0.5647526,0.3127867
5443,0.6449805,0.569239,0.311533
5446,0.6449805,0.569239,0.311533
5448,0.6467983,0.5726661,0.309643
5450,0.6467983,0.5726661,0.309643
5453,0.6573014,0.5855064,0.3071049
5455,0.6573014,0.5855064,0.3071049
5457,0.660568,0.5901666,0.3051875
5460,0.6705639,0.6023093,0.3032579
5463,0.6705639,0.6023093,0.3032579
5465,0.6740565,0.6065179,0.302612
5468,0.6740565,0.6065179,0.302612
5470,0.6798376,0.6138933,0.3006659
5472,0.6798376,0.6138933,0.3006659
5475,0.6815624,0.616438,0.3000144
5477,0.6838553,0.6189722,0.2993615
5479,0.6838553,0.6189722,0.2993615
5482,0.6849989,0.6196041,0.3000144
5484,0.6849989,0.6196041,0.3000144
5486,0.6855699,0.6211812,0.3000144
5489,0.688134,0.6233823,0.3000144
5491,0.688134,0.6233823,0.3000144
5493,0.690405,0.6249498,0.3006659
5495,0.690405,0.6249498,0.3006659
5498,0.6918207,0.6271377,0.301316
5500,0.6918207,0.6271377,0.301316
5502,0.6921035,0.6271377,0.301316
5506,0.6923862,0.6268256,0.302612
5508,0.6923862,0.6268256,0.302612
5510,0.6926687,0.6274496,0.3019647
5513,0.6926687,0.6274496,0.3019647
5515,0.6932335,0.6274496,0.302612
5517,0.6954879,0.6286958,0.3039024
5520,0.6954879,0.6286958,0.3039024
5522,0.6957693,0.6293179,0.3045456
5524,0.6957693,0.6293179,0.3045456
5527,0.6985759,0.6318005,0.3058279
5529,0.6985759,0.6318005,0.3058279
5531,0.6996954,0.6327289,0.3064671
5534,0.7005339,0.6330382,0.3077414
5536,0.7005339,0.6330382,0.3077414
5538,0.7008132,0.6327289,0.3090104
5541,0.7008132,0.6327289,0.3090104
5543,0.7083117,0.6385778,0.3127867
5545,0.711069,0.6404136,0.3140353
5549,0.711069,0.6404136,0.3140353
5551,0.711894,0.6416347,0.3146578
5553,0.711894,0.6416347,0.3146578
5556,0.7121689,0.6419396,0.3140353
5558,0.7121689,0.6419396,0.3140353
5560,0.7113441,0.6410245,0.315279
5563,0.7107937,0.6404136,0.315279
5565,0.7107937,0.6404136,0.315279
5567,0.7099674,0.6398023,0.3146578
5570,0.7099674,0.6398023,0.3146578
5572,0.7096917,0.6391903,0.3146578
5574,0.7096917,0.6391903,0.3146578
5577,0.7072059,0.6364292,0.315279
5579,0.7058211,0.6351982,0.315899
5581,0.7058211,0.6351982,0.315899
5583,0.7060983,0.6355062,0.315279
5586,0.7060983,0.6355062,0.315279
5588,0.7060983,0.635814,0.3146578
5591,0.7072059,0.6373509,0.315279
5594,0.7072059,0.6373509,0.315279
5596,0.708588,0.6379647,0.3146578
5598,0.708588,0.6379647,0.3146578
5601,0.7083117,0.6379647,0.3146578
5603,0.7080355,0.6382713,0.3146578
5605,0.707759,0.6379647,0.3146578
5608,0.7074825,0.6376578,0.3140353
5610,0.7074825,0.6376578,0.3140353
5612,0.7066523,0.6379647,0.3121605
5615,0.7066523,0.6379647,0.3121605
5617,0.7080355,0.6388841,0.3127867
5619,0.7088641,0.640108,0.3121605
5622,0.7088641,0.640108,0.3121605
5624,0.7099674,0.6416347,0.3109043
5626,0.7099674,0.6416347,0.3109043
5629,0.7102429,0.6425489,0.309643
5632,0.7102429,0.6425489,0.309643
5634,0.7105184,0.6431577,0.309643
5637,0.7121689,0.644677,0.3090104
5639,0.7121689,0.644677,0.3090104
5641,0.7121689,0.645587,0.3090104
5644,0.7121689,0.645587,0.3090104
5646,0.7121689,0.645587,0.3083766
5648,0.7121689,0.645587,0.3083766
5651,0.7127182,0.646193,0.3077414
5653,0.7129927,0.6471007,0.3071049
5655,0.7129927,0.6471007,0.3071049
5658,0.7138155,0.6480073,0.3064671
5660,0.7138155,0.6480073,0.3064671
5662,0.7138155,0.6480073,0.3064671
5665,0.7151849,0.6504185,0.3051875
5667,0.7151849,0.6504185,0.3051875
5669,0.7157319,0.6516207,0.3045456
5671,0.7157319,0.6516207,0.3045456
5675,0.7165515,0.652221,0.3032579
5677,0.7165515,0.652221,0.3032579
5679,0.7149112,0.6507192,0.302612
5682,0.7138155,0.6504185,0.3019647
5684,0.7138155,0.6504185,0.3019647
5686,0.7132671,0.6498165,0.3006659
5689,0.7132671,0.6498165,0.3006659
5691,0.711894,0.6486109,0.3000144
5693,0.7113441,0.6477052,0.2993615
5696,0.7107937,0.6474031,0.3000144
5698,0.7088641,0.645587,0.3000144
5700,0.7088641,0.645587,0.3000144
5703,0.7080355,0.6440698,0.3006659
5705,0.7080355,0.6440698,0.3006659
5707,0.7060983,0.6416347,0.3006659
5710,0.7049889,0.6407191,0.3019647
5712,0.7049889,0.6407191,0.3019647
5714,0.7047113,0.6398023,0.3019647
5718,0.7024865,0.6376578,0.302612
5720,0.7010924,0.635814,0.302612
5722,0.699975,0.6345818,0.3019647
5725,0.699975,0.6345818,0.3019647
5727,0.6982958,0.6324196,0.302612
5729,0.6982958,0.6324196,0.302612
5732,0.6974546,0.6321102,0.302612
5734,0.6974546,0.6321102,0.302612
5736,0.6968932,0.63025,0.3039024
5739,0.6966124,0.6305605,0.3039024
5741,0.6966124,0.6305605,0.3039024
5743,0.6982958,0.6314908,0.3045456
5746,0.6982958,0.6314908,0.3045456
5748,0.6994157,0.6327289,0.3051875
5750,0.6994157,0.6327289,0.3051875
5753,0.7024865,0.635814,0.3058279
5755,0.7063754,0.6391903,0.3077414
5757,0.7063754,0.6391903,0.3077414
5760,0.7072059,0.6398023,0.3077414
5763,0.7072059,0.6398023,0.3077414
5765,0.7080355,0.6404136,0.3090104
5767,0.7083117,0.6407191,0.3090104
5770,0.7083117,0.6407191,0.3090104
5772,0.7088641,0.6407191,0.309643
5774,0.7088641,0.6407191,0.309643
5777,0.707759,0.6404136,0.3077414
5779,0.707759,0.6404136,0.3077414
5781,0.707759,0.6404136,0.3077414
5784,0.709416,0.6425489,0.3083766
5786,0.709416,0.6425489,0.3083766
5788,0.711069,0.6434618,0.3083766
5791,0.711069,0.6434618,0.3083766
5793,0.7124436,0.645587,0.3083766
5795,0.7140896,0.6471007,0.3090104
5798,0.7140896,0.6471007,0.3090104
5800,0.7168246,0.6498165,0.3090104
5803,0.7168246,0.6498165,0.3090104
5806,0.7170975,0.6510199,0.3077414
5808,0.7170975,0.6510199,0.3077414
5810,0.7165515,0.6501176,0.3077414
5813,0.7157319,0.6495153,0.3077414
5815,0.7157319,0.6495153,0.3077414
5817,0.7140896,0.6480073,0.3077414
5820,0.7140896,0.6480073,0.3077414
5822,0.7129927,0.646193,0.3077414
5824,0.7129927,0.64589,0.3090104
5827,0.7129927,0.64589,0.3090104
5829,0.7143636,0.6464956,0.309643
5831,0.7143636,0.6464956,0.309643
5834,0.7162784,0.6483091,0.3102743
5836,0.7162784,0.6483091,0.3102743
5838,0.719821,0.6510199,0.3127867
5840,0.719005,0.6495153,0.3140353
5843,0.719005,0.6495153,0.3140353
5846,0.7179157,0.6474031,0.3146578
5848,0.7179157,0.6474031,0.3146578
5851,0.7154584,0.6443735,0.315279
5853,0.7154584,0.6443735,0.315279
5855,0.7132671,0.6413296,0.3165179
5858,0.7091401,0.6364292,0.3177519
5860,0.7091401,0.6364292,0.3177519
5862,0.7069291,0.6333472,0.3177519
5865,0.7069291,0.6333472,0.3177519
5867,0.7024865,0.6277614,0.3195939
5869,0.7002546,0.6252628,0.3202056
5872,0.7002546,0.6252628,0.3202056
5874,0.6985759,0.6227542,0.3220336
5876,0.6985759,0.6227542,0.3220336
5879,0.6960504,0.6189722,0.3238513
5881,0.6960504,0.6189722,0.3238513
5883,0.6960504,0.6183397,0.3256589
5886,0.6954879,0.6170725,0.3268584
5889,0.6954879,0.6170725,0.3268584
5891,0.7083117,0.6277614,0.332791
5894,0.7083117,0.6277614,0.332791
5896,0.7279305,0.6449805,0.3409232
5898,0.7265852,0.6440698,0.3397734
5901,0.7265852,0.6440698,0.3397734
5903,0.7263159,0.6434618,0.339197
5905,0.7263159,0.6434618,0.339197
5908,0.7370135,0.6537194,0.3426407
5910,0.7370135,0.6537194,0.3426407
5912,0.7467723,0.6626383,0.3460502
5915,0.7551107,0.66998,0.3494264
5917,0.7551107,0.66998,0.3494264
5919,0.747558,0.6635236,0.3449174
5922,0.747558,0.6635236,0.3449174
5924,0.7451985,0.6617518,0.343781
5926,0.7451985,0.6617518,0.343781
5928,0.7569224,0.6726035,0.3483046
5932,0.7654059,0.6795497,0.3516591
5934,0.7654059,0.6795497,0.3516591
5936,0.7722777,0.6858553,0.3538778
5939,0.7722777,0.6858553,0.3538778
5941,0.7682129,0.6827098,0.3522151
5943,0.760533,0.6755064,0.3488659
5946,0.760533,0.6755064,0.3488659
5948,0.7540734,0.6696879,0.3460502
5950,0.7540734,0.6696879,0.3460502
5953,0.7610474,0.6772422,0.3471792
5955,0.7610474,0.6772422,0.3471792
5957,0.7636142,0.6798376,0.3477423
5960,0.7569224,0.6746368,0.3426407
5962,0.7569224,0.6746368,0.3426407
5964,0.7433581,0.6647022,0.3339648
5967,0.7433581,0.6647022,0.3339648
5969,0.7370135,0.6599753,0.329838
5971,0.7316842,0.6558113,0.3262592
5975,0.7316842,0.6558113,0.3262592
5977,0.7203645,0.6471007,0.3202056
5979,0.7203645,0.6471007,0.3202056
5982,0.7160051,0.6440698,0.3165179
5984,0.7160051,0.6440698,0.3165179
5986,0.7129927,0.6422443,0.3146578
5989,0.7080355,0.6388841,0.3102743
5991,0.7080355,0.6388841,0.3102743
5993,0.7052664,0.6367366,0.3090104
5996,0.7052664,0.6367366,0.3090104
5998,0.7033216,0.6355062,0.3077414
6000,0.7013714,0.6342734,0.3058279
6003,0.7013714,0.6342734,0.3058279
6005,0.7002546,0.633656,0.3051875
6007,0.7002546,0.633656,0.3051875
6010,0.7005339,0.6339648,0.3032579
6012,0.7005339,0.6339648,0.3032579
6014,0.7002546,0.6345818,0.3032579
6017,0.6994157,0.6339648,0.302612
6020,0.6994157,0.6339648,0.302612
6022,0.6988559,0.633656,0.3019647
6024,0.6988559,0.633656,0.3019647
6027,0.6581939,0.5804718,0.3171355
6029,0.6581939,0.5804718,0.3171355
6031,0.6434618,0.5602303,0.3232465
6034,0.6590852,0.5733491,0.329838
6036,0.6590852,0.5733491,0.329838
6038,0.6818494,0.5931431,0.339197
6041,0.6818494,0.5931431,0.339197
6043,0.6835691,0.5964329,0.3368816
6045,0.6855699,0.6006827,0.3339648
6048,0.6855699,0.6006827,0.3339648
6050,0.687565,0.6042554,0.3316129
6052,0.687565,0.6042554,0.3316129
6055,0.6906884,0.6094146,0.3286494
6057,0.6906884,0.6094146,0.3286494
6060,0.6909717,0.6103771,0.3274564
6063,0.6909717,0.6103771,0.3274564
6065,0.6909717,0.6103771,0.3274564
6067,0.6909717,0.6103771,0.3274564
6070,0.6909717,0.6103771,0.3274564
6072,0.6884183,0.6084505,0.3250574
6074,0.6849989,0.6058724,0.3232465
6077,0.6849989,0.6058724,0.3232465
6079,0.6838553,0.605226,0.3220336
6081,0.6838553,0.605226,0.3220336
6084,0.6861406,0.607807,0.3202056
6086,0.6861406,0.607807,0.3202056
6088,0.688134,0.6122975,0.3177519
6091,0.6864257,0.6103771,0.3165179
6093,0.6864257,0.6103771,0.3165179
6095,0.6844273,0.6084505,0.3171355
6098,0.6844273,0.6084505,0.3171355
6100,0.6835691,0.6071628,0.3165179
6103,0.6835691,0.6071628,0.3165179
6105,0.6827098,0.6061952,0.3171355
6108,0.6852845,0.6094146,0.3165179
6110,0.6852845,0.6094146,0.3165179
6112,0.6878495,0.6122975,0.3165179
6115,0.6878495,0.6122975,0.3165179
6117,0.6935157,0.618656,0.3171355
6119,0.6963314,0.6218109,0.3165179
6122,0.6963314,0.6218109,0.3165179
6124,0.6991359,0.6240098,0.3177519
6126,0.6977351,0.6227542,0.3183671
6129,0.697174,0.6214961,0.3183671
6131,0.697174,0.6214961,0.3183671
6133,0.6954879,0.6189722,0.3189811
6136,0.6937978,0.6177064,0.3189811
6138,0.6937978,0.6177064,0.3189811
6140,0.6943616,0.6183397,0.3189811
6144,0.6943616,0.6183397,0.3189811
6146,0.694925,0.6192883,0.3183671
6148,0.6954879,0.6199199,0.3189811
6151,0.6954879,0.6199199,0.3189811
6153,0.6943616,0.6177064,0.3208161
6155,0.6943616,0.6177064,0.3208161
6158,0.6937978,0.6173896,0.3208161
6160,0.6937978,0.6173896,0.3208161
6162,0.6935157,0.615485,0.3232465
6165,0.6954879,0.6177064,0.3226406
6167,0.6954879,0.6177064,0.3226406
6169,0.6968932,0.6196041,0.3226406
6172,0.6968932,0.6196041,0.3226406
6174,0.6977351,0.6208661,0.3226406
6176,0.6968932,0.6199199,0.3220336
6179,0.6968932,0.6199199,0.3220336
6181,0.6957693,0.6180231,0.3238513
6183,0.6957693,0.6180231,0.3238513
6187,0.6946434,0.6170725,0.3238513
6189,0.6946434,0.6170725,0.3238513
6191,0.6943616,0.6158028,0.324455
6193,0.694925,0.615167,0.3268584
6196,0.694925,0.615167,0.3268584
6198,0.6952065,0.615167,0.3280534
6200,0.6952065,0.615167,0.3280534
6203,0.6966124,0.6170725,0.3274564
6205,0.6966124,0.6170725,0.3274564
6207,0.6974546,0.6177064,0.3268584
6210,0.6954879,0.6158028,0.3268584
6212,0.6954879,0.6158028,0.3268584
6214,0.6946434,0.615167,0.3268584
6217,0.6946434,0.615167,0.3268584
6219,0.6940797,0.6145305,0.3262592
6221,0.6929511,0.6135744,0.3256589
6224,0.6929511,0.6135744,0.3256589
6226,0.6895542,0.6097356,0.3250574
6228,0.6895542,0.6097356,0.3250574
6232,0.6884183,0.608772,0.3250574
6234,0.6884183,0.608772,0.3250574
6236,0.690405,0.6113381,0.3232465
6239,0.6929511,0.6161205,0.3208161
6241,0.6929511,0.6161205,0.3208161
6243,0.708588,0.6314908,0.324455
6246,0.708588,0.6314908,0.324455
6248,0.7217214,0.6437659,0.3280534
6250,0.7530347,0.6737661,0.3368816
6253,0.7530347,0.6737661,0.3368816
6255,0.7646385,0.6849989,0.3397734
6257,0.7646385,0.6849989,0.3397734
6260,0.7628451,0.6858553,0.3339648
6262,0.7628451,0.6858553,0.3339648
6264,0.7620752,0.6864257,0.3322025
6267,0.7556288,0.6824232,0.3262592
6269,0.7556288,0.6824232,0.3262592
6272,0.7532945,0.680988,0.3238513
6275,0.7532945,0.680988,0.3238513
6277,0.7451985,0.6737661,0.3195939
6279,0.7423044,0.6714388,0.3183671
6281,0.7423044,0.6714388,0.3183671
6284,0.7615615,0.6892704,0.324455
6286,0.7615615,0.6892704,0.324455
6288,0.7689767,0.6960504,0.3268584
6291,0.7689767,0.6960504,0.3268584
6293,0.7880787,0.7138155,0.3339648
6295,0.7952467,0.7206361,0.3363003
6298,0.7952467,0.7206361,0.3363003
6300,0.8045425,0.729005,0.339197
6302,0.8045425,0.729005,0.339197
6305,0.8180492,0.741777,0.3432113
6307,0.8180492,0.741777,0.3432113
6309,0.8242449,0.7480813,0.3449174
6312,0.8339216,0.7574393,0.3471792
6315,0.8339216,0.7574393,0.3471792
6317,0.8374339,0.7607903,0.3494264
6320,0.8374339,0.7607903,0.3494264
6322,0.8432553,0.7659171,0.3511023
6324,0.8103587,0.7284679,0.3538778
6327,0.8103587,0.7284679,0.3538778
6329,0.7615615,0.6714388,0.3593647
6331,0.7615615,0.6714388,0.3593647
6334,0.7625886,0.6717301,0.3599087
6336,0.7625886,0.6717301,0.3599087
6338,0.7631016,0.6717301,0.3609945
6341,0.7722777,0.6824232,0.3609945
6343,0.7722777,0.6824232,0.3609945
6345,0.7858408,0.6977351,0.360452
6348,0.7858408,0.6977351,0.360452
6350,0.7798419,0.6940797,0.354982
6352,0.7753122,0.6912548,0.3505445
6355,0.7753122,0.6912548,0.3505445
6358,0.7643827,0.6844273,0.3409232
6360,0.7643827,0.6844273,0.3409232
6363,0.7592455,0.680988,0.3363003
6365,0.7592455,0.680988,0.3363003
6367,0.7499101,0.6749268,0.3286494
6369,0.7459858,0.6723125,0.3250574
6372,0.7459858,0.6723125,0.3250574
6374,0.742568,0.6702721,0.3220336
6376,0.742568,0.6702721,0.3220336
6379,0.7348864,0.6647022,0.3165179
6381,0.7348864,0.6647022,0.3165179
6383,0.7308815,0.6611602,0.3146578
6386,0.7238871,0.6552143,0.3102743
6388,0.7238871,0.6552143,0.3102743
6390,0.7219925,0.6537194,0.3102743
6393,0.7219925,0.6537194,0.3102743
6395,0.719821,0.651921,0.3090104
6397,0.7165515,0.6486109,0.3090104
6401,0.7165515,0.6486109,0.3090104
6403,0.7151849,0.6471007,0.3083766
6405,0.7151849,0.6471007,0.3083766
6408,0.7135413,0.64589,0.3083766
6410,0.7135413,0.64589,0.3083766
6412,0.7102429,0.6425489,0.3071049
6415,0.708588,0.6410245,0.3064671
6417,0.708588,0.6410245,0.3064671
6419,0.7074825,0.6398023,0.3058279
6422,0.7074825,0.6398023,0.3058279
6424,0.7074825,0.6394964,0.3064671
6426,0.7063754,0.6388841,0.3058279
6429,0.7063754,0.6388841,0.3058279
6431,0.7074825,0.6398023,0.3071049
6433,0.7074825,0.6398023,0.3071049
6436,0.7080355,0.6404136,0.3071049
6438,0.7080355,0.6404136,0.3071049
6440,0.7113441,0.6434618,0.3077414
6444,0.7129927,0.645587,0.3071049
6446,0.7129927,0.645587,0.3071049
6448,0.7143636,0.6471007,0.3077414
6450,0.7143636,0.6471007,0.3077414
6453,0.7151849,0.6480073,0.3077414
6455,0.7160051,0.6489125,0.3071049
6457,0.7160051,0.6489125,0.3071049
6460,0.7160051,0.6489125,0.3064671
6462,0.7160051,0.6489125,0.3064671
6464,0.7184606,0.6513204,0.3064671
6467,0.7184606,0.6513204,0.3064671
6469,0.7203645,0.65342,0.3071049
6471,0.7217214,0.6549156,0.3071049
6474,0.7217214,0.6549156,0.3071049
6476,0.7246976,0.6581939,0.3077414
6478,0.7246976,0.6581939,0.3077414
6481,0.7255072,0.659382,0.3077414
6483,0.7255072,0.659382,0.3077414
6486,0.7260464,0.6602717,0.3064671
6489,0.7249676,0.6596788,0.3064671
6491,0.7249676,0.6596788,0.3064671
6493,0.7238871,0.6587883,0.3058279
6496,0.7238871,0.6587883,0.3058279
6498,0.7230757,0.6578966,0.3051875
6500,0.7217214,0.6573014,0.3032579
6503,0.7217214,0.6573014,0.3032579
6505,0.7209076,0.6570037,0.3032579
6507,0.7209076,0.6570037,0.3032579
6510,0.721179,0.6575991,0.3019647
6512,0.721179,0.6575991,0.3019647
6514,0.721179,0.6573014,0.302612
6517,0.721179,0.6581939,0.302612
6519,0.721179,0.6581939,0.302612
6521,0.7214502,0.6581939,0.3019647
6524,0.7214502,0.6581939,0.3019647
6526,0.7217214,0.6587883,0.3006659
6529,0.7219925,0.6596788,0.2993615
6532,0.7219925,0.6596788,0.2993615
6534,0.7217214,0.659382,0.2987072
6536,0.7217214,0.659382,0.2987072
6538,0.7209076,0.659382,0.2980514
6541,0.7209076,0.659382,0.2980514
6543,0.7206361,0.6590852,0.2973941
6545,0.7206361,0.6590852,0.2967354
6548,0.7206361,0.6590852,0.2967354
6550,0.7214502,0.6602717,0.2973941
6552,0.7214502,0.6602717,0.2973941
6555,0.7225344,0.6611602,0.2980514
6557,0.7233464,0.6608641,0.2993615
6559,0.7233464,0.6608641,0.2993615
6562,0.7236168,0.660568,0.3000144
6564,0.7236168,0.660568,0.3000144
6566,0.7241574,0.660568,0.3019647
6569,0.7241574,0.660568,0.3019647
6572,0.7241574,0.660568,0.302612
6574,0.7244276,0.660568,0.3032579
6577,0.7244276,0.660568,0.3032579
6579,0.7246976,0.660568,0.3032579
6581,0.7246976,0.660568,0.3032579
6584,0.7244276,0.660568,0.3032579
6586,0.7244276,0.660568,0.3032579
6588,0.7244276,0.6602717,0.3039024
6591,0.6578966,0.5760729,0.3214254
6593,0.6578966,0.5760729,0.3214254
6595,0.5668277,0.4480613,0.3477423
6598,0.5668277,0.4480613,0.3477423
6600,0.569239,0.450674,0.3483046
6602,0.5706123,0.4515415,0.3488659
6605,0.5706123,0.4515415,0.3488659
6607,0.587175,0.4751895,0.3454843
6609,0.587175,0.4751895,0.3454843
6612,0.6006827,0.4941643,0.3426407
6615,0.6006827,0.4941643,0.3426407
6617,0.6274496,0.5308178,0.3357179
6620,0.6407191,0.5489398,0.332791
6622,0.6407191,0.5489398,0.332791
6624,0.6516207,0.5630175,0.3304307
6626,0.6516207,0.5630175,0.3304307
6629,0.6731851,0.5914913,0.3250574
6631,0.6835691,0.6049027,0.3226406
6633,0.6835691,0.6049027,0.3226406
6636,0.6923862,0.615485,0.3214254
6638,0.6923862,0.6243232,0.3195939
6640,0.7049889,0.6311808,0.3183671
6643,0.7049889,0.6311808,0.3183671
6645,0.709416,0.6370438,0.3171355
6647,0.7149112,0.6440698,0.315279
6650,0.7149112,0.6440698,0.315279
6652,0.7162784,0.6464956,0.3140353
6654,0.7162784,0.6464956,0.3140353
6658,0.7179157,0.6480073,0.3134116
6660,0.7179157,0.6480073,0.3134116
6662,0.7187329,0.6501176,0.311533
6665,0.719005,0.6507192,0.311533
6667,0.719005,0.6507192,0.311533
6669,0.7200928,0.651921,0.311533
6672,0.7200928,0.651921,0.311533
6674,0.7217214,0.6537194,0.3109043
6676,0.7222635,0.6543178,0.3102743
6679,0.7222635,0.6543178,0.3102743
6681,0.7230757,0.6552143,0.3109043
6683,0.7230757,0.6552143,0.3109043
6686,0.7236168,0.6561096,0.3109043
6688,0.7236168,0.6561096,0.3109043
6690,0.7236168,0.6561096,0.3102743
6693,0.7260464,0.6599753,0.3083766
6695,0.7260464,0.6599753,0.3083766
6697,0.7268545,0.6611602,0.3077414
6701,0.7268545,0.6611602,0.3077414
6703,0.7273927,0.6617518,0.3071049
6705,0.7276617,0.6623429,0.3071049
6708,0.7276617,0.6623429,0.3071049
6710,0.7252374,0.6599753,0.3058279
6712,0.7252374,0.6599753,0.3058279
6714,0.7238871,0.659382,0.3051875
6717,0.7238871,0.659382,0.3051875
6719,0.7222635,0.6573014,0.3051875
6721,0.719821,0.6546168,0.3058279
6724,0.719821,0.6546168,0.3058279
6726,0.7162784,0.6507192,0.3051875
6728,0.7162784,0.6507192,0.3051875
6731,0.7107937,0.645587,0.3045456
6733,0.7088641,0.6428534,0.3039024
6735,0.7088641,0.6428534,0.3039024
6738,0.7069291,0.6416347,0.3032579
6740,0.7069291,0.6416347,0.3032579
6743,0.7024865,0.6370438,0.3019647
6746,0.7024865,0.6370438,0.3019647
6748,0.7008132,0.6351982,0.3019647
6750,0.6946434,0.6293179,0.3006659
6753,0.6946434,0.6293179,0.3006659
6755,0.6923862,0.6271377,0.3000144
6757,0.6923862,0.6271377,0.3000144
6760,0.6937978,0.629007,0.2987072
6762,0.6937978,0.629007,0.2987072
6764,0.6940797,0.6299395,0.2980514
6767,0.6963314,0.6327289,0.2973941
6769,0.6963314,0.6327289,0.2973941
6771,0.699975,0.6370438,0.2967354
6774,0.699975,0.6370438,0.2967354
6776,0.699975,0.6370438,0.2967354
6778,0.699975,0.6370438,0.2967354
6781,0.699975,0.6370438,0.2967354
6784,0.7022079,0.6404136,0.2960753
6786,0.7044336,0.6428534,0.2954137
6789,0.7063754,0.6452838,0.2954137
6791,0.7063754,0.6452838,0.2954137
6793,0.7083117,0.6477052,0.2947506
6796,0.7113441,0.6507192,0.2934199
6798,0.7113441,0.6507192,0.2934199
6800,0.7129927,0.652521,0.2934199
6802,0.7129927,0.652521,0.2934199
6805,0.7154584,0.6558113,0.2927522
6807,0.7170975,0.6584912,0.2927522
6809,0.7170975,0.6584912,0.2927522
6812,0.7187329,0.6596788,0.2920831
6814,0.7187329,0.6596788,0.2920831
6816,0.7214502,0.6629335,0.2914124
6819,0.7214502,0.6629335,0.2914124
6821,0.7219925,0.6641131,0.2914124
6823,0.7016503,0.6385778,0.2987072
6827,0.7016503,0.6385778,0.2987072
6829,0.6841414,0.6167554,0.3045456
6831,0.6841414,0.6167554,0.3045456
6834,0.6183397,0.53008,0.3226406
6836,0.5678623,0.4588492,0.3380413
6838,0.5297108,0.3990945,0.3499859
6841,0.5008504,0.3483046,0.360452
6843,0.5008504,0.3483046,0.360452
6845,0.4913847,0.3262592,0.3690354
6848,0.4913847,0.3262592,0.3690354
6850,0.4668813,0.2733977,0.3784592
6852,0.4383485,0.1897456,0.3946573
6855,0.4383485,0.1897456,0.3946573
6857,0.4284154,0.1412742,0.4039677
6859,0.4284154,0.1412742,0.4039677
6862,0.4238235,0.06255726,0.4182466
6864,0.4238235,0.06255726,0.4182466
6866,0.4252063,0.08392937,0.4154301
6870,0.429328,0.1153499,0.4130683
6872,0.429328,0.1153499,0.4130683
6874,0.4379019,0.1758294,0.4005627
6877,0.4379019,0.1758294,0.4005627
6879,0.4511079,0.2246844,0.3911712
6881,0.4554249,0.2373883,0.3881583
6884,0.4554249,0.2373883,0.3881583
6886,0.4476244,0.2148914,0.392669
6888,0.4476244,0.2148914,0.392669
6890,0.4423477,0.1938267,0.3966355
6893,0.4329587,0.1532334,0.4039677
6895,0.427501,0.1186941,0.409739
6897,0.4256662,0.08846933,0.4154301
6900,0.4256662,0.08846933,0.4154301
6902,0.429328,0.02797646,0.4279585
6904,0.429328,0.02797646,0.4279585
6907,0.4334104,0.01978234,0.4325065
6909,0.4524074,-0.03426402,0.4511079
6912,0.4524074,-0.03426402,0.4511079
6915,0.4605518,-0.04423466,0.4592754
6917,0.4605518,-0.04423466,0.4592754
6919,0.468137,-0.05233916,0.466462
6922,0.468137,-0.05233916,0.466462
6924,0.477244,-0.0656106,0.4747775
6926,0.4809199,-0.07401875,0.4764233
6929,0.4809199,-0.07401875,0.4764233
6931,0.4841639,-0.09487279,0.4760123
6933,0.4841639,-0.09487279,0.4760123
6936,0.4849715,-0.1046783,0.4747775
6938,0.4849715,-0.1046783,0.4747775
6940,0.4881886,-0.1083524,0.477244
6943,0.4905876,-0.1046783,0.4809199
6945,0.4905876,-0.1046783,0.4809199
6947,0.4722982,0.04845664,0.4714689
6950,0.4722982,0.04845664,0.4714689
6952,0.4698059,0.09278741,0.4614008
6955,0.477244,0.1519511,0.453703
6958,0.477244,0.1519511,0.453703
6960,0.4889896,0.1724585,0.4588492
6962,0.4889896,0.1724585,0.4588492
6965,0.4937682,0.1802258,0.4614008
6967,0.4937682,0.1802258,0.4614008
6969,0.4953507,0.1690205,0.4677188
6972,0.4988932,0.1519511,0.4780633
6974,0.4988932,0.1519511,0.4780633
6976,0.5020211,0.199792,0.4618246
6978,0.5020211,0.199792,0.4618246
6981,0.5203939,0.2797648,0.4383485
6983,0.5066768,0.254109,0.4379019
6985,0.5066768,0.254109,0.4379019
6988,0.4905876,0.2065338,0.4454334
6990,0.4905876,0.2065338,0.4454334
6992,0.4877876,0.183454,0.4524074
6995,0.4877876,0.183454,0.4524074
6998,0.4861804,0.1643245,0.4579955
7000,0.4764233,0.1065312,0.464781
7003,0.4764233,0.1065312,0.464781
7005,0.4751895,0.08622923,0.468137
7007,0.4751895,0.08622923,0.468137
7010,0.4957456,0.2046302,0.450674
7012,0.5116726,0.2517883,0.4441136
7014,0.5116726,0.2517883,0.4441136
7017,0.5158621,0.249446,0.4515415
7019,0.5158621,0.249446,0.4515415
7021,0.5196414,0.2470816,0.4571402
7024,0.5196414,0.2470816,0.4571402
7026,0.5482264,0.3090104,0.4528397
7028,0.5747126,0.3626169,0.4449939
7031,0.5747126,0.3626169,0.4449939
7033,0.6026341,0.4215088,0.429328
7035,0.6026341,0.4215088,0.429328
7038,0.6558113,0.5151029,0.4049353
7041,0.6558113,0.5151029,0.4049353
7043,0.6189722,0.4652019,0.4073442
7046,0.569239,0.3936644,0.409739
7048,0.569239,0.3936644,0.409739
7050,0.5794597,0.4173099,0.4015385
7053,0.5794597,0.4173099,0.4015385
7055,0.5885065,0.4379019,0.3936644
7057,0.5619739,0.4029978,0.392669
7059,0.5619739,0.4029978,0.392669
7062,0.5352231,0.360452,0.3966355
7064,0.5352231,0.360452,0.3966355
7066,0.5260038,0.3538778,0.3911712
7069,0.5260038,0.3538778,0.3911712
7071,0.5359538,0.3774237,0.3835945
7073,0.5668277,0.4352126,0.3679734
7076,0.5668277,0.4352126,0.3679734
7078,0.5861744,0.4677188,0.3599087
7080,0.5861744,0.4677188,0.3599087
7084,0.6262009,0.5278606,0.3460502
7086,0.6464956,0.5570779,0.3397734
7088,0.6464956,0.5570779,0.3397734
7091,0.6596788,0.5709552,0.3420692
7093,0.6596788,0.5709552,0.3420692
7095,0.6821364,0.5964329,0.3443497
7098,0.6821364,0.5964329,0.3443497
7100,0.7160051,0.6385778,0.3403488
7102,0.7717707,0.7066523,0.3322025
7105,0.7717707,0.7066523,0.3322025
7107,0.7815963,0.7184606,0.329838
7109,0.7815963,0.7184606,0.329838
7112,0.7920414,0.7311491,0.3280534
7114,0.7920414,0.7311491,0.3280534
7116,0.8122882,0.7532945,0.3268584
7119,0.8221055,0.7633579,0.3274564
7121,0.8221055,0.7633579,0.3274564
7123,0.8320423,0.7737964,0.3280534
7127,0.8320423,0.7737964,0.3280534
7129,0.8127698,0.7483428,0.3374619
7131,0.8079404,0.7415132,0.3403488
7134,0.8079404,0.7415132,0.3403488
7136,0.9071976,0.8547791,0.3316129
7138,0.9071976,0.8547791,0.3316129
7141,0.9446045,0.8904341,0.3403488
7143,0.9446045,0.8904341,0.3403488
7145,1.005804,0.9503872,0.3527702
7147,1.031545,0.9759852,0.3577275
7150,1.031545,0.9759852,0.3577275
7152,1.083359,1.032493,0.354982
7154,1.083359,1.032493,0.354982
7157,1.135566,1.090919,0.3477423
7159,1.143808,1.101096,0.3432113
7161,1.143808,1.101096,0.3432113
7164,1.153179,1.112411,0.339197
7166,1.137288,1.094858,0.3426407
7169,1.126744,1.082998,0.3449174
7172,1.126744,1.082998,0.3449174
7174,1.120125,1.075928,0.3471792
7176,1.148247,1.104467,0.3511023
7179,1.148247,1.104467,0.3511023
7181,1.161633,1.118376,0.3522151
7183,1.161633,1.118376,0.3522151
7186,1.22605,1.187291,0.3494264
7188,1.25367,1.216597,0.3477423
7190,1.25367,1.216597,0.3477423
7193,1.19714,1.157752,0.3471792
7195,1.19714,1.157752,0.3471792
7197,1.161633,1.12187,0.3432113
7200,1.161633,1.12187,0.3432113
7202,1.170527,1.132633,0.3403488
7204,1.180183,1.143808,0.3386196
7207,1.180183,1.143808,0.3386196
7209,1.204635,1.167514,0.3466151
7212,1.204635,1.167514,0.3466151
7215,1.216114,1.179022,0.3488659
7217,1.216114,1.179022,0.3488659
7219,1.23733,1.201056,0.3511023
7222,1.24694,1.211277,0.3511023
7224,1.24694,1.211277,0.3511023
7226,1.25367,1.219328,0.3483046
7229,1.25367,1.219328,0.3483046
7231,1.258499,1.224932,0.3471792
7233,1.258499,1.224932,0.3477423
7235,1.258499,1.224932,0.3477423
7238,1.262226,1.22892,0.3477423
7240,1.262226,1.22892,0.3477423
7242,1.226688,1.191076,0.3494264
7245,1.226688,1.191076,0.3494264
7247,1.176862,1.137804,0.3533245
7249,1.19124,1.14944,0.360452
7252,1.19124,1.14944,0.360452
7255,1.215309,1.16969,0.3711503
7257,1.215309,1.16969,0.3711503
7260,1.236856,1.18795,0.3800071
7262,1.255697,1.20431,0.3881583
7264,1.255697,1.20431,0.3881583
7267,1.290437,1.235114,0.4015385
7269,1.290437,1.235114,0.4015385
7271,1.305063,1.248352,0.4068635
7274,1.305063,1.248352,0.4068635
7276,1.326184,1.266405,0.4168407
7278,1.335595,1.274568,0.4205793
7281,1.335595,1.274568,0.4205793
7283,1.345957,1.282984,0.4265846
7285,1.345957,1.282984,0.4265846
7288,1.364153,1.29875,0.4356619
7290,1.364153,1.29875,0.4356619
7292,1.372306,1.304463,0.4423477
7296,1.379843,1.310301,0.4480613
7298,1.379843,1.310301,0.4480613
7300,1.395216,1.32175,0.4597013
7303,1.395216,1.32175,0.4597013
7305,1.40249,1.327217,0.4656223
7307,1.41596,1.336327,0.4776538
7310,1.41596,1.336327,0.4776538
7312,1.422028,1.340567,0.4833549
7314,1.422028,1.340567,0.4833549
7317,1.398858,1.31045,0.4957456
7319,1.398858,1.31045,0.4957456
7321,1.375866,1.283137,0.5028
7323,1.35725,1.26083,0.5082192
7326,1.35725,1.26083,0.5082192
7328,1.304463,1.197303,0.5211454
7330,1.304463,1.197303,0.5211454
7333,1.27057,1.156399,0.5297108
7335,1.21997,1.093606,0.5428462
7337,1.21997,1.093606,0.5428462
7341,1.20366,1.072649,0.5482264
7343,1.20366,1.072649,0.5482264
7345,1.178026,1.039482,0.5560232
7348,1.178026,1.039482,0.5560232
7350,1.180349,1.040799,0.5584812
7352,1.182006,1.040611,0.5626699
7355,1.182006,1.040611,0.5626699
7357,1.190912,1.049412,0.5647526
7359,1.190912,1.049412,0.5647526
7362,1.19763,1.056103,0.5668277
7364,1.211439,1.069543,0.5709552
7366,1.211439,1.069543,0.5709552
7369,1.218204,1.07611,0.5730078
7371,1.218204,1.07611,0.5730078
7373,1.230352,1.087865,0.5767518
7376,1.230352,1.087865,0.5767518
7378,1.235906,1.093248,0.5784457
7380,1.240173,1.097001,0.5804718
7384,1.240173,1.097001,0.5804718
7386,1.251952,1.109593,0.5821548
7388,1.251952,1.109593,0.5821548
7391,1.256165,1.113642,0.5831623
7393,1.256165,1.113642,0.5831623
7395,1.266405,1.125701,0.5824909
7398,1.270108,1.129865,0.5824909
7400,1.270108,1.129865,0.5824909
7402,1.275489,1.136428,0.5811456
7405,1.275489,1.136428,0.5811456
7407,1.282222,1.145347,0.5787839
7409,1.283899,1.148077,0.5767518
7411,1.283899,1.148077,0.5767518
7414,1.28527,1.15012,0.5760729
7416,1.288008,1.154875,0.5726661
7418,1.289982,1.158427,0.5706123
7421,1.289982,1.158427,0.5706123
7424,1.291498,1.161296,0.5682068
7426,1.294222,1.167514,0.5626699
7429,1.294222,1.167514,0.5626699
7431,1.294978,1.169356,0.5602303
7433,1.294978,1.169356,0.5602303
7436,1.281153,1.153857,0.5609285
7438,1.25523,1.125179,0.5612772
7440,1.25523,1.125179,0.5612772
7443,1.24364,1.112236,0.5619739
7445,1.24364,1.112236,0.5619739
7447,1.234004,1.101451,0.5619739
7450,1.234004,1.101451,0.5619739
7452,1.185477,1.048479,0.5602303
7454,1.167178,1.028315,0.5598809
7457,1.167178,1.028315,0.5598809
7459,1.129172,0.9889315,0.5539077
7461,1.129172,0.9889315,0.5539077
7464,1.113994,0.9731742,0.5521386
7467,1.093427,0.953881,0.5453635
7469,1.093427,0.953881,0.5453635
7472,1.084442,0.9454328,0.5432066
7474,1.084442,0.9454328,0.5432066
7476,1.086785,0.9516218,0.5388666
7479,1.086785,0.9516218,0.5388666
7481,1.087865,0.9583834,0.5319225
7483,1.094143,0.970355,0.5252593
7486,1.094143,0.970355,0.5252593
7488,1.098605,0.9793876,0.5200178
7490,1.098605,0.9793876,0.5200178
7493,1.098605,0.9793876,0.5200178
7495,1.098605,0.9793876,0.5200178
7497,1.098605,0.9793876,0.5200178
7499,0.9847674,0.8386015,0.5311863
7502,0.9847674,0.8386015,0.5311863
7504,0.9354453,0.7745547,0.5370479
7506,0.9354453,0.7745547,0.5370479
7510,0.8609378,0.6720214,0.5460806
7512,0.8320423,0.6299395,0.5500081
7514,0.8320423,0.6299395,0.5500081
7517,0.8108415,0.598071,0.5524929
7519,0.8108415,0.598071,0.5524929
7521,0.776825,0.5442861,0.5567266
7524,0.776825,0.5442861,0.5567266
7526,0.7697397,0.5326577,0.5574291
7528,0.7556288,0.5093729,0.5591815
7531,0.7556288,0.5093729,0.5591815
7533,0.7551107,0.5101407,0.55778
7535,0.7551107,0.5101407,0.55778
7538,0.7504317,0.5047422,0.5560232
7540,0.7517344,0.509757,0.5532007
7542,0.7517344,0.509757,0.5532007
7545,0.749649,0.5109072,0.5492961
7547,0.749649,0.5109072,0.5492961
7549,0.7532945,0.5200178,0.5460806
7553,0.7532945,0.5200178,0.5460806
7555,0.7545922,0.5252593,0.5428462
7557,0.7699938,0.5542608,0.5363187
7560,0.7699938,0.5542608,0.5363187
7562,0.7820969,0.5740312,0.533025
7564,0.7820969,0.5740312,0.533025
7567,0.8057577,0.6116581,0.5260038
7569,0.8057577,0.6116581,0.5260038
7571,0.8170919,0.6293179,0.5230194
7574,0.8256681,0.6422443,0.5203939
7576,0.8256681,0.6422443,0.5203939
7578,0.8311011,0.6504185,0.5200178
7581,0.8311011,0.6504185,0.5200178
7583,0.8320423,0.651921,0.5196414
7585,0.854092,0.6812752,0.5185105
7587,0.854092,0.6812752,0.5185105
7590,0.8616194,0.6906884,0.518133
7592,0.8616194,0.6906884,0.518133
7595,0.8816,0.7154584,0.518133
7598,0.8816,0.7154584,0.518133
7600,0.8882338,0.7238871,0.518133
7602,0.9046055,0.7428315,0.5196414
7605,0.9046055,0.7428315,0.5196414
7607,0.9102123,0.7488656,0.5203939
7609,0.9102123,0.7488656,0.5203939
7612,1.018756,0.8915322,0.5004597
7614,1.061094,0.9443973,0.4929749
7616,1.061094,0.9443973,0.4929749
7619,1.065878,0.949151,0.4949555
7621,1.065878,0.949151,0.4949555
7623,1.116801,1.00833,0.4913847
7626,1.116801,1.00833,0.4913847
7628,1.156229,1.054434,0.4877876
7630,1.180183,1.079015,0.4917827
7633,1.180183,1.079015,0.4917827
7635,1.173365,1.068079,0.4977152
7638,1.173365,1.068079,0.4977152
7641,1.148247,1.032682,0.5109072
7643,1.13246,1.01085,0.518133
7645,1.13246,1.01085,0.518133
7648,1.15809,1.038163,0.5207698
7650,1.15809,1.038163,0.5207698
7652,1.19009,1.075382,0.5185105
7655,1.19009,1.075382,0.5185105
7657,1.217561,1.107122,0.5166202
7659,1.297544,1.199262,0.5093729
7662,1.297544,1.199262,0.5093729
7664,1.329427,1.235272,0.5074486
7666,1.329427,1.235272,0.5074486
7668,1.388608,1.30161,0.5031891
7671,1.388608,1.30161,0.5031891
7673,1.413608,1.329132,0.5016313
7675,1.410976,1.323378,0.5082192
7678,1.410976,1.323378,0.5082192
7681,1.412223,1.323821,0.5105241
7683,1.412223,1.323821,0.5105241
7686,1.426013,1.337498,0.5132
7688,1.450639,1.362718,0.5169988
7690,1.450639,1.362718,0.5169988
7693,1.474057,1.387339,0.5173771
7695,1.474057,1.387339,0.5173771
7697,1.495017,1.409449,0.5173771
7700,1.495017,1.409449,0.5173771
7702,1.522386,1.435314,0.5241405
7704,1.534931,1.447668,0.5263757
7707,1.534931,1.447668,0.5263757
7709,1.542689,1.453334,0.5319225
7711,1.542689,1.453334,0.5319225
7714,1.558967,1.467404,0.5406791
7716,1.573461,1.481605,0.5439265
7718,1.573461,1.481605,0.5439265
7721,1.586959,1.494624,0.5464389
7724,1.586959,1.494624,0.5464389
7726,1.598142,1.502199,0.55778
7729,1.598142,1.502199,0.55778
7731,1.604862,1.50766,0.5616257
7733,1.62534,1.525981,0.5702693
7736,1.62534,1.525981,0.5702693
7738,1.634944,1.535059,0.5733491
7740,1.634944,1.535059,0.5733491
7743,1.639605,1.537224,0.5804718
7745,1.650312,1.544337,0.5908293
7747,1.650312,1.544337,0.5908293
7750,1.649719,1.541166,0.5967609
7752,1.649719,1.541166,0.5967609
7754,1.65209,1.540277,0.6049027
7756,1.65209,1.540277,0.6049027
7759,1.652208,1.537861,0.6106976
7761,1.65564,1.537861,0.6189722
7763,1.65564,1.537861,0.6189722
7767,1.65564,1.535951,0.6230683
7769,1.65564,1.535951,0.6230683
7771,1.658356,1.53646,0.629007
7774,1.658356,1.53646,0.629007
7776,1.663776,1.542308,0.6283845
7778,1.669295,1.548387,0.628073
7781,1.669295,1.548387,0.628073
7783,1.675964,1.55658,0.6252628
7785,1.675964,1.55658,0.6252628
7788,1.678064,1.559594,0.6233823
7790,1.674796,1.557083,0.6202354
7792,1.674796,1.557083,0.6202354
7795,1.673159,1.556706,0.6173896
7797,1.673159,1.556706,0.6173896
7799,1.649956,1.533018,0.6135744
7802,1.649956,1.533018,0.6135744
7804,1.631828,1.514136,0.6119779
7806,1.588808,1.468737,0.6084505
7810,1.588808,1.468737,0.6084505
7812,1.565481,1.444149,0.6071628
7814,1.565481,1.444149,0.6071628
7817,1.546616,1.42409,0.6055493
7819,1.487669,1.362,0.6006827
7821,1.487669,1.362,0.6006827
7824,1.450639,1.323526,0.5957764
7826,1.450639,1.323526,0.5957764
7828,1.419824,1.291346,0.591822
7831,1.419824,1.291346,0.591822
7833,1.377714,1.249448,0.5818186
7835,1.36358,1.236539,0.5764125
7838,1.36358,1.236539,0.5764125
7840,1.339691,1.215148,0.5661368
7842,1.339691,1.215148,0.5661368
7844,1.329132,1.205934,0.5605795
7847,1.329132,1.205934,0.5605795
7849,1.319824,1.19763,0.556375
7852,1.244898,1.115222,0.555319
7855,1.244898,1.115222,0.555319
7857,1.202359,1.067896,0.5546138
7859,1.202359,1.067896,0.5546138
7862,1.166507,1.027744,0.5539077
7864,1.108005,0.9616448,0.5524929
7866,1.108005,0.9616448,0.5524929
7869,1.083178,0.9333511,0.5517841
7871,1.083178,0.9333511,0.5517841
7873,1.060356,0.9071976,0.5510744
7876,1.060356,0.9071976,0.5510744
7878,1.027173,0.8713301,0.5464389
7880,1.012591,0.8554656,0.5446455
7883,1.012591,0.8554656,0.5446455
7885,1.003077,0.8460353,0.5414024
7887,1.003077,0.8460353,0.5414024
7890,1.005415,0.8531751,0.5344914
7892,1.013557,0.8652454,0.53008
7895,1.013557,0.8652454,0.53008
7898,1.022207,0.8793777,0.5237671
7900,1.022207,0.8793777,0.5237671
7902,1.039482,0.901572,0.5203939
7905,1.039482,0.901572,0.5203939
7907,1.052763,0.9185583,0.5169988
7909,1.090919,0.9640834,0.5124369
7912,1.090919,0.9640834,0.5124369
7914,1.103581,0.9797872,0.5101407
7916,1.103581,0.9797872,0.5101407
7919,1.138148,1.019908,0.5082192
7921,1.150291,1.033819,0.5066768
7923,1.150291,1.033819,0.5066768
7926,1.168184,1.054063,0.5066768
7928,1.168184,1.054063,0.5066768
7930,1.194357,1.08354,0.5051297
7932,1.194357,1.08354,0.5051297
7936,1.210469,1.101451,0.5055169
7938,1.234004,1.127264,0.5055169
7940,1.234004,1.127264,0.5055169
7943,1.245998,1.139866,0.5062904
7945,1.245998,1.139866,0.5062904
7947,1.255697,1.15012,0.5070629
7950,1.255697,1.15012,0.5070629
7952,1.274722,1.169188,0.5109072
7954,1.281611,1.176363,0.5116726
7957,1.281611,1.176363,0.5116726
7959,1.297243,1.19239,0.5143426
7961,1.297243,1.19239,0.5143426
7964,1.302812,1.198283,0.5147229
7966,1.313433,1.208042,0.5188877
7968,1.313433,1.208042,0.5188877
7971,1.317301,1.2116,0.5207698
7973,1.317301,1.2116,0.5207698
7975,1.320121,1.213214,0.5237671
7979,1.320121,1.213214,0.5237671
7981,1.324117,1.215631,0.5286014
7983,1.309255,1.195831,0.5363187
7986,1.309255,1.195831,0.5363187
7988,1.287248,1.165836,0.5478694
7990,1.287248,1.165836,0.5478694
7993,1.302211,1.180515,0.5514293
7995,1.324265,1.202033,0.5574291
7997,1.324265,1.202033,0.5574291
8000,1.338814,1.216918,0.5591815
8002,1.338814,1.216918,0.5591815
8004,1.350891,1.229397,0.5605795
8007,1.350891,1.229397,0.5605795
8009,1.358115,1.234955,0.5650989
8011,1.355808,1.231147,0.5682068
8014,1.355808,1.231147,0.5682068
8016,1.347701,1.219167,0.5743721
8018,1.347701,1.219167,0.5743721
8020,1.342609,1.212085,0.577091
8024,1.342609,1.212085,0.577091
8026,1.331339,1.19534,0.5855064
8028,1.327512,1.189432,0.5888388
8031,1.327512,1.189432,0.5888388
8033,1.322786,1.182337,0.5921526
8035,1.322786,1.182337,0.5921526
8038,1.31641,1.172197,0.5974163
8040,1.31388,1.168016,0.6003569
8042,1.31388,1.168016,0.6003569
8045,1.310749,1.161969,0.6049027
8047,1.310749,1.161969,0.6049027
8049,1.309404,1.159103,0.6071628
8052,1.309404,1.159103,0.6071628
8054,1.307759,1.155213,0.6110179
8056,1.307161,1.153688,0.612617
8059,1.307161,1.153688,0.612617
8061,1.307161,1.1525,0.6145305
8064,1.307161,1.1525,0.6145305
8067,1.308059,1.152839,0.6158028
8069,1.308806,1.153349,0.6170725
8071,1.308806,1.153349,0.6170725
8074,1.310898,1.154705,0.618656
8076,1.310898,1.154705,0.618656
8078,1.312092,1.155383,0.6196041
8081,1.312092,1.155383,0.6196041
8083,1.314773,1.158427,0.6196041
8085,1.31641,1.160284,0.6192883
8088,1.31641,1.160284,0.6192883
8090,1.320121,1.164997,0.6192883
8092,1.320121,1.164997,0.6192883
8095,1.32249,1.167514,0.6189722
8097,1.324117,1.169356,0.6192883
8099,1.324117,1.169356,0.6192883
8102,1.356529,1.207394,0.6167554
8104,1.356529,1.207394,0.6167554
8107,1.368736,1.221573,0.615485
8109,1.368736,1.221573,0.615485
8112,1.377572,1.231941,0.6145305
8114,1.38126,1.236381,0.614212
8116,1.38126,1.236381,0.614212
8119,1.382393,1.238437,0.612617
8121,1.382393,1.238437,0.612617
8123,1.39297,1.251952,0.6097356
8126,1.39297,1.251952,0.6097356
8128,1.410004,1.273339,0.6045791
8130,1.417065,1.281916,0.6026341
8133,1.417065,1.281916,0.6026341
8135,1.414024,1.279166,0.6013339
8137,1.414024,1.279166,0.6013339
8140,1.407365,1.273339,0.598071
8142,1.404024,1.270416,0.5964329
8144,1.404024,1.270416,0.5964329
8147,1.397178,1.26424,0.5944612
8150,1.397178,1.26424,0.5944612
8152,1.393953,1.26083,0.5934729
8155,1.393953,1.26083,0.5934729
8157,1.386633,1.253826,0.5914913
8159,1.383242,1.250544,0.590498
8162,1.383242,1.250544,0.590498
8164,1.380835,1.248038,0.589503
8166,1.380835,1.248038,0.589503
8169,1.378282,1.245527,0.5888388
8171,1.374585,1.242066,0.5875081
8173,1.374585,1.242066,0.5875081
8176,1.373589,1.240962,0.587175
8178,1.373589,1.240962,0.587175
8180,1.370736,1.237962,0.5868416
8183,1.370736,1.237962,0.5868416
8185,1.369308,1.236381,0.5868416
8187,1.36845,1.235272,0.5868416
8190,1.36845,1.235272,0.5868416
8193,1.365014,1.231623,0.5868416
8195,1.365014,1.231623,0.5868416
8197,1.362431,1.22876,0.587175
8200,1.361425,1.227645,0.5875081
8202,1.361425,1.227645,0.5875081
8204,1.360706,1.226848,0.587175
8207,1.360706,1.226848,0.587175
8209,1.351471,1.217722,0.5855064
8211,1.351471,1.217722,0.5855064
8214,1.351471,1.217722,0.5855064
8216,1.351471,1.217722,0.5855064
8218,1.351471,1.217722,0.5855064
8221,1.350167,1.216114,0.5855064
8223,1.350167,1.216114,0.5855064
8225,1.347265,1.211762,0.5875081
8228,1.347265,1.211762,0.5875081
8230,1.346393,1.210307,0.5885065
8232,1.346103,1.20966,0.5898349
8236,1.346103,1.20966,0.5898349
8238,1.346393,1.209499,0.5901666
8240,1.346393,1.209499,0.5901666
8243,1.347991,1.210631,0.5914913
8245,1.350747,1.212407,0.5938025
8247,1.350747,1.212407,0.5938025
8250,1.352484,1.213375,0.5964329
8252,1.352484,1.213375,0.5964329
8254,1.35523,1.214504,0.6000308
8257,1.35523,1.214504,0.6000308
8259,1.357827,1.215953,0.6029587
8261,1.361856,1.217883,0.607807
8264,1.361856,1.217883,0.607807
8266,1.366447,1.221092,0.6110179
8268,1.366447,1.221092,0.6110179
8271,1.369879,1.223813,0.6135744
8273,1.392829,1.247254,0.6180231
8275,1.392829,1.247254,0.6180231
8278,1.40931,1.264549,0.6202354
8281,1.40931,1.264549,0.6202354
8283,1.431628,1.285423,0.6286958
8285,1.431628,1.285423,0.6286958
8288,1.438855,1.29074,0.6339648
8290,1.450369,1.297695,0.645587
8292,1.450369,1.297695,0.645587
8295,1.454949,1.299955,0.6516207
8297,1.454949,1.299955,0.6516207
8299,1.459649,1.30161,0.6584912
8302,1.459649,1.30161,0.6584912
8304,1.467538,1.305063,0.6691033
8306,1.47419,1.307759,0.6786853
8309,1.47419,1.307759,0.6786853
