time,turnedAngle,pitchAngle,yawAngle
  332,0,0,0
293003,0,0,0
293005,0,0,0
293008???2998,0,0,0
293000,0,0,0
293003,0,0,0
293005,0,0,0
293008???starting,0.6148488,0.6122975,0.04845664
0,0.6199199,0.6183397,0.04845664
1,0.6199199,0.6183397,0.04845664
2,0.6246366,0.6224399,0.04845664
4,0.6246366,0.6224399,0.04845664
5,0.6327289,0.6308707,0.04845664
7,0.6327289,0.6308707,0.04845664
8,0.6364292,0.6342734,0.04845664
10,0.6394964,0.6379647,0.04845664
12,0.6394964,0.6379647,0.04845664
14,0.6422443,0.6410245,0.04845664
16,0.6422443,0.6410245,0.04845664
19,0.6464956,0.644677,0.04845664
21,0.6464956,0.644677,0.04845664
23,0.6474031,0.64589,0.04423466
25,0.6474031,0.64589,0.04423466
27,0.6474031,0.646193,0.03956468
29,0.6474031,0.646193,0.03956468
32,0.6464956,0.645587,0.03956468
34,0.6464956,0.645587,0.03956468
36,0.6434618,0.6422443,0.03956468
38,0.6407191,0.640108,0.03426402
40,0.6407191,0.640108,0.03426402
43,0.6388841,0.6382713,0.03426402
46,0.6388841,0.6382713,0.03426402
48,0.6314908,0.63025,0.03426402
50,0.6314908,0.63025,0.03426402
52,0.6286958,0.6277614,0.02797646
54,0.6286958,0.6277614,0.02797646
56,0.6129363,0.6119779,0.03426402
58,0.6129363,0.6119779,0.03426402
61,0.6074851,0.6065179,0.03426402
63,0.6074851,0.6065179,0.03426402
65,0.5997046,0.598725,0.03426402
67,0.5885065,0.5875081,0.02797646
69,0.5885065,0.5875081,0.02797646
71,0.5821548,0.5814822,0.01978234
74,0.5821548,0.5814822,0.01978234
76,0.5688952,0.5678623,0.02797646
78,0.5688952,0.5678623,0.02797646
80,0.5623221,0.5619739,0.02797646
82,0.5623221,0.5619739,0.02797646
84,0.5570779,0.5567266,0.01978234
88,0.5570779,0.5567266,0.01978234
90,0.5439265,0.5432066,0.01978234
92,0.5439265,0.5432066,0.01978234
94,0.5388666,0.5388666,0.01978234
96,0.533025,0.5322903,0.01978234
98,0.533025,0.5322903,0.01978234
100,0.5237671,0.5233933,0
103,0.5237671,0.5233933,0
105,0.5196414,0.5196414,0.01978234
107,0.5196414,0.5196414,0.01978234
109,0.5132,0.5128186,0.01978234
112,0.5132,0.5128186,0.01978234
114,0.509757,0.509757,0
116,0.5074486,0.5074486,0
118,0.5074486,0.5074486,0
121,0.4996771,0.5000685,0.01978234
123,0.4996771,0.5000685,0.01978234
125,0.4969283,0.4977152,0
128,0.4969283,0.4977152,0
131,0.4949555,0.4957456,0
133,0.4941643,0.4945601,0
135,0.4941643,0.4945601,0
137,0.4917827,0.4929749,0
140,0.4917827,0.4929749,0
142,0.4885893,0.4893896,0
144,0.4885893,0.4893896,0
146,0.4889896,0.4901886,0
149,0.4889896,0.4901886,0
151,0.4897892,0.4905876,0
153,0.4889896,0.4901886,0
155,0.4889896,0.4901886,0
158,0.4885893,0.4901886,0
160,0.4885893,0.4901886,0
162,0.4865827,0.4881886,-0.02797646
164,0.4865827,0.4881886,-0.02797646
166,0.4857778,0.4861804,-0.01978234
169,0.4857778,0.4861804,-0.01978234
172,0.4821389,0.4833549,0
174,0.4776538,0.4792896,0
176,0.4776538,0.4792896,0
179,0.4764233,0.4780633,0
181,0.4764233,0.4780633,0
183,0.4756011,0.477244,0
185,0.4756011,0.477244,0
188,0.4739525,0.4751895,0
190,0.4731261,0.4743652,0
192,0.4731261,0.4743652,0
194,0.4714689,0.4739525,0
197,0.4714689,0.4739525,0
199,0.4710537,0.4735395,0
201,0.4710537,0.4735395,0
203,0.4751895,0.4760123,0
206,0.4751895,0.4760123,0
208,0.4801054,0.4809199,0
210,0.4805128,0.4817329,0
212,0.4805128,0.4817329,0
216,0.4817329,0.4833549,0.01978234
218,0.4817329,0.4833549,0.01978234
220,0.4849715,0.4865827,0.01978234
222,0.4849715,0.4865827,0.01978234
225,0.4901886,0.4905876,0
227,0.4901886,0.4905876,0
229,0.4933717,0.4945601,0.01978234
231,0.4988932,0.4996771,0
233,0.4988932,0.4996771,0
236,0.5035778,0.5039662,0.01978234
238,0.5035778,0.5039662,0.01978234
240,0.509757,0.5105241,0.01978234
242,0.509757,0.5105241,0.01978234
245,0.5151029,0.5154827,0.01978234
247,0.5185105,0.5188877,0.01978234
249,0.5185105,0.5188877,0.01978234
251,0.5215207,0.5215207,0
254,0.5215207,0.5215207,0
257,0.5241405,0.5245137,0.01978234
259,0.5241405,0.5245137,0.01978234
261,0.5252593,0.5248867,0.01978234
264,0.5252593,0.5248867,0.01978234
266,0.5267473,0.5267473,0.01978234
268,0.5278606,0.5286014,0.01978234
270,0.5278606,0.5286014,0.01978234
273,0.5289715,0.5289715,0.02797646
275,0.5289715,0.5289715,0.02797646
277,0.5319225,0.5319225,0.02797646
279,0.5319225,0.5319225,0.02797646
282,0.5337587,0.5337587,0.02797646
284,0.5337587,0.5337587,0.02797646
286,0.5348573,0.5355885,0.01978234
288,0.5428462,0.5435666,0.01978234
291,0.5428462,0.5435666,0.01978234
293,0.5460806,0.5464389,0.02797646
295,0.5460806,0.5464389,0.02797646
297,0.5478694,0.5482264,0.01978234
300,0.5478694,0.5482264,0.01978234
303,0.5496522,0.5500081,0.01978234
305,0.5539077,0.5539077,0.02797646
307,0.5539077,0.5539077,0.02797646
309,0.555319,0.555319,0
312,0.555319,0.555319,0
314,0.563365,0.563365,0.01978234
316,0.563365,0.563365,0.01978234
318,0.5661368,0.5661368,0
321,0.5661368,0.5661368,0
323,0.5706123,0.5709552,0
325,0.5719823,0.5726661,0.01978234
327,0.5719823,0.5726661,0.01978234
330,0.5753932,0.5760729,0
332,0.5753932,0.5760729,0
334,0.5804718,0.5811456,0
336,0.5804718,0.5811456,0
339,0.5828267,0.5834977,0
342,0.5848376,0.5855064,0
344,0.5848376,0.5855064,0
346,0.590498,0.5911604,0
349,0.590498,0.5911604,0
351,0.5928131,0.5934729,0
353,0.5928131,0.5934729,0
355,0.5974163,0.598071,0
357,0.5974163,0.598071,0
360,0.6039315,0.6045791,-0.01978234
362,0.608772,0.6097356,0
364,0.608772,0.6097356,0
366,0.6129363,0.6135744,0
369,0.6129363,0.6135744,0
371,0.618656,0.6192883,0
373,0.618656,0.6192883,0
375,0.6208661,0.6211812,0
378,0.6208661,0.6211812,0
380,0.6230683,0.6230683,-0.02797646
382,0.6258884,0.6262009,-0.02797646
385,0.6258884,0.6262009,-0.02797646
388,0.628073,0.6286958,-0.02797646
390,0.628073,0.6286958,-0.02797646
392,0.63025,0.6305605,-0.02797646
394,0.63025,0.6305605,-0.02797646
397,0.6342734,0.6345818,-0.03426402
399,0.6361217,0.6361217,-0.03956468
401,0.6361217,0.6361217,-0.03956468
403,0.6440698,0.644677,-0.04845664
406,0.6440698,0.644677,-0.04845664
408,0.6471007,0.6480073,-0.04845664
410,0.6471007,0.6480073,-0.04845664
412,0.6516207,0.651921,-0.05934703
415,0.6516207,0.651921,-0.05934703
417,0.6531205,0.6531205,-0.05934703
419,0.6513204,0.6510199,-0.0656106
421,0.6513204,0.6510199,-0.0656106
423,0.6483091,0.6480073,-0.07132626
427,0.6483091,0.6480073,-0.07132626
429,0.6452838,0.6449805,-0.07401875
431,0.6452838,0.6449805,-0.07401875
433,0.6431577,0.6422443,-0.07912937
436,0.6431577,0.6422443,-0.07912937
438,0.6416347,0.6407191,-0.08622923
440,0.6422443,0.6404136,-0.09065409
442,0.6422443,0.6404136,-0.09065409
445,0.6416347,0.6391903,-0.09691329
447,0.6416347,0.6391903,-0.09691329
449,0.6416347,0.6385778,-0.1027921
451,0.6416347,0.6385778,-0.1027921
454,0.6388841,0.6351982,-0.1083524
456,0.6348901,0.6299395,-0.1170339
458,0.6348901,0.6299395,-0.1170339
460,0.6342734,0.6299395,-0.1203313
463,0.6342734,0.6299395,-0.1203313
465,0.633656,0.6293179,-0.1235407
467,0.633656,0.6286958,-0.1251145
470,0.6299395,0.6249498,-0.1312212
473,0.6299395,0.6249498,-0.1312212
475,0.6274496,0.6218109,-0.132704
477,0.6283845,0.6221254,-0.1370561
479,0.6283845,0.6221254,-0.1370561
482,0.6305605,0.6243232,-0.1398823
484,0.6305605,0.6243232,-0.1398823
486,0.6321102,0.6262009,-0.1412742
488,0.6321102,0.6262009,-0.1412742
490,0.6370438,0.6311808,-0.1440177
493,0.6370438,0.6311808,-0.1440177
495,0.6379647,0.6308707,-0.1467098
497,0.6385778,0.6305605,-0.1506579
499,0.6385778,0.6305605,-0.1506579
502,0.6431577,0.6342734,-0.1519511
504,0.6431577,0.6342734,-0.1519511
506,0.6464956,0.6373509,-0.1545051
508,0.6464956,0.6373509,-0.1545051
512,0.649214,0.640108,-0.1545051
514,0.6528208,0.6431577,-0.1557664
516,0.6528208,0.6431577,-0.1557664
518,0.6537194,0.6440698,-0.1570175
521,0.6537194,0.6440698,-0.1570175
523,0.6507192,0.6404136,-0.1594904
525,0.6507192,0.6404136,-0.1594904
527,0.6558113,0.6452838,-0.1582588
530,0.6558113,0.6452838,-0.1582588
532,0.6596788,0.6498165,-0.1557664
534,0.667053,0.6584912,-0.1519511
536,0.667053,0.6584912,-0.1519511
539,0.6702721,0.6617518,-0.1493534
541,0.6702721,0.6617518,-0.1493534
543,0.6728944,0.6649964,-0.1480375
545,0.6728944,0.6649964,-0.1480375
548,0.6807005,0.6734757,-0.1412742
550,0.6829963,0.6766641,-0.1384764
552,0.6829963,0.6766641,-0.1384764
555,0.6884183,0.6835691,-0.1312212
557,0.6884183,0.6835691,-0.1312212
560,0.690405,0.6861406,-0.1282043
562,0.690405,0.6861406,-0.1282043
564,0.694925,0.6915378,-0.1251145
566,0.694925,0.6915378,-0.1251145
569,0.7013714,0.6991359,-0.1203313
571,0.7060983,0.7044336,-0.1170339
573,0.7060983,0.7044336,-0.1170339
575,0.7096917,0.7083117,-0.1136409
578,0.7096917,0.7083117,-0.1136409
580,0.7181882,0.7184606,-0.1065312
582,0.7181882,0.7184606,-0.1065312
584,0.7214502,0.7219925,-0.1046783
587,0.7214502,0.7219925,-0.1046783
589,0.7292733,0.7306137,-0.09891172
591,0.7324861,0.7338206,-0.09487279
593,0.7324861,0.7338206,-0.09487279
596,0.7335538,0.7354187,-0.09065409
599,0.7335538,0.7354187,-0.09065409
601,0.7354187,0.7372789,-0.08846933
603,0.7354187,0.7372789,-0.08846933
606,0.7346201,0.7372789,-0.08392937
608,0.7338206,0.7364823,-0.07912937
610,0.7338206,0.7364823,-0.07912937
612,0.7327532,0.7354187,-0.07912937
615,0.7327532,0.7354187,-0.07912937
617,0.7314168,0.7343537,-0.07401875
619,0.7314168,0.7343537,-0.07401875
621,0.7330202,0.7362165,-0.07132626
623,0.7330202,0.7362165,-0.07132626
626,0.7335538,0.7367479,-0.07132626
628,0.7364823,0.7388696,-0.06852804
630,0.7364823,0.7388696,-0.06852804
632,0.7393991,0.7423044,-0.0656106
635,0.7393991,0.7423044,-0.0656106
637,0.7401926,0.7430948,-0.0656106
640,0.7401926,0.7430948,-0.0656106
642,0.7412493,0.7436213,-0.06255726
645,0.7412493,0.7436213,-0.06255726
647,0.7438844,0.7467723,-0.06255726
649,0.7483428,0.7506924,-0.06255726
651,0.7483428,0.7506924,-0.06255726
654,0.7478197,0.7499101,-0.05595291
656,0.7478197,0.7499101,-0.05595291
658,0.7472962,0.749649,-0.05934703
660,0.7472962,0.749649,-0.05934703
663,0.7465102,0.7486043,-0.05934703
665,0.7467723,0.7483428,-0.05595291
667,0.7467723,0.7483428,-0.05595291
669,0.7451985,0.7467723,-0.05934703
672,0.7451985,0.7467723,-0.05934703
674,0.7428315,0.7444103,-0.05595291
676,0.7428315,0.7444103,-0.05595291
678,0.7430948,0.7449358,-0.05934703
681,0.7430948,0.7449358,-0.05934703
684,0.7430948,0.7449358,-0.05595291
686,0.741777,0.7433581,-0.05934703
688,0.741777,0.7433581,-0.05934703
690,0.7404569,0.7420408,-0.05595291
693,0.7404569,0.7420408,-0.05595291
695,0.7391344,0.7407211,-0.05934703
697,0.7391344,0.7407211,-0.05934703
699,0.7391344,0.7404569,-0.05595291
702,0.7391344,0.7404569,-0.05595291
704,0.7391344,0.7407211,-0.05934703
706,0.7393991,0.7404569,-0.06255726
708,0.7393991,0.7404569,-0.06255726
711,0.7393991,0.7401926,-0.05934703
713,0.7393991,0.7401926,-0.05934703
715,0.7364823,0.7375443,-0.05934703
717,0.7364823,0.7375443,-0.05934703
720,0.7295417,0.7300779,-0.06255726
722,0.7255072,0.7260464,-0.05934703
724,0.7255072,0.7260464,-0.05934703
727,0.7225344,0.7228051,-0.0656106
730,0.7225344,0.7228051,-0.0656106
732,0.7200928,0.7200928,-0.06852804
734,0.7200928,0.7200928,-0.06852804
736,0.7187329,0.719005,-0.0656106
739,0.7187329,0.719005,-0.0656106
741,0.7200928,0.719821,-0.0656106
743,0.7206361,0.721179,-0.05934703
745,0.7206361,0.721179,-0.05934703
748,0.7219925,0.7219925,-0.06255726
750,0.7219925,0.7219925,-0.06255726
752,0.7222635,0.7225344,-0.0656106
754,0.7222635,0.7225344,-0.0656106
756,0.7246976,0.7244276,-0.06255726
759,0.7255072,0.7252374,-0.05934703
761,0.7255072,0.7252374,-0.05934703
763,0.7265852,0.7265852,-0.05595291
765,0.7265852,0.7265852,-0.05595291
769,0.7281993,0.7279305,-0.05934703
771,0.7281993,0.7279305,-0.05934703
773,0.7279305,0.7281993,-0.05934703
775,0.7279305,0.7281993,-0.05934703
778,0.7281993,0.7281993,-0.05595291
780,0.7298098,0.7298098,-0.05934703
782,0.7298098,0.7298098,-0.05934703
784,0.7306137,0.7308815,-0.05233916
787,0.7306137,0.7308815,-0.05233916
789,0.7306137,0.7303458,-0.05233916
791,0.7306137,0.7303458,-0.05233916
793,0.7298098,0.7303458,-0.04423466
796,0.7298098,0.7303458,-0.04423466
798,0.7281993,0.7287365,-0.03956468
800,0.7273927,0.7281993,-0.04845664
802,0.7273927,0.7281993,-0.04845664
805,0.7260464,0.7263159,-0.03956468
807,0.7260464,0.7263159,-0.03956468
809,0.7236168,0.7246976,-0.03956468
812,0.7236168,0.7246976,-0.03956468
814,0.7225344,0.7236168,-0.03426402
817,0.7222635,0.7228051,-0.03956468
819,0.7222635,0.7228051,-0.03956468
821,0.7206361,0.7214502,-0.01978234
823,0.7206361,0.7214502,-0.01978234
826,0.7200928,0.721179,-0.03426402
828,0.7200928,0.721179,-0.03426402
830,0.7225344,0.7233464,-0.03426402
832,0.7225344,0.7233464,-0.03426402
835,0.7241574,0.7249676,-0.02797646
837,0.7241574,0.7249676,0
839,0.7241574,0.7249676,0
841,0.7241574,0.7246976,0
844,0.7241574,0.7246976,0
846,0.7228051,0.7236168,-0.02797646
848,0.7228051,0.7236168,-0.02797646
850,0.7206361,0.7214502,0
854,0.7206361,0.7214502,0
856,0.7184606,0.7195491,0
858,0.7170975,0.717643,0
860,0.7170975,0.717643,0
863,0.6679325,0.6685182,0
865,0.6679325,0.6685182,0
867,0.649214,0.6498165,0
869,0.649214,0.6498165,0
872,0.6230683,0.6236961,0
874,0.5824909,0.5828267,0
876,0.5824909,0.5828267,0
878,0.5931431,0.5934729,0
880,0.5931431,0.5934729,0
883,0.6013339,0.6016592,0
885,0.6013339,0.6016592,0
887,0.644677,0.644677,0.01978234
889,0.644677,0.644677,0.01978234
892,0.6602717,0.6602717,0
894,0.66998,0.6696879,0
897,0.66998,0.6696879,0
899,0.6778198,0.6778198,0
902,0.6778198,0.6778198,0
904,0.6887025,0.6887025,0
906,0.6887025,0.6887025,0
908,0.6921035,0.6923862,0.01978234
911,0.6921035,0.6923862,0.01978234
913,0.6952065,0.6952065,0
915,0.6892704,0.6895542,0
917,0.6892704,0.6895542,0
920,0.6726035,0.6728944,0
922,0.6726035,0.6728944,0
924,0.6483091,0.6486109,0
926,0.6483091,0.6486109,0
929,0.628073,0.6283845,0
931,0.6116581,0.6119779,0
933,0.6116581,0.6119779,0
935,0.6016592,0.6019843,0
939,0.6016592,0.6019843,0
941,0.6049027,0.605226,0
943,0.6049027,0.605226,0
945,0.6071628,0.6071628,0.01978234
947,0.6071628,0.6071628,0.01978234
950,0.5757331,0.5757331,0.01978234
952,0.5814822,0.5818186,0
954,0.5814822,0.5818186,0
956,0.5901666,0.5901666,0
959,0.5901666,0.5901666,0
961,0.6039315,0.6039315,0.01978234
963,0.6039315,0.6039315,0.01978234
965,0.615485,0.615485,0
968,0.6249498,0.6249498,0.01978234
970,0.6249498,0.6249498,0.01978234
972,0.6391903,0.6394964,0
974,0.6391903,0.6394964,0
977,0.6510199,0.6510199,0
979,0.6510199,0.6510199,0
982,0.6638185,0.6641131,0
984,0.6638185,0.6641131,0
987,0.6832828,0.6832828,0
989,0.690405,0.690405,0
991,0.690405,0.690405,0
993,0.690405,0.690405,0
996,0.690405,0.690405,0
998,0.690405,0.690405,0
1000,0.690405,0.690405,0
1002,0.6980155,0.6980155,0
1005,0.6852845,0.6852845,0
1007,0.6852845,0.6852845,0
1009,0.7465102,0.7465102,0
1012,0.7465102,0.7465102,0
1014,0.8064859,0.8064859,0
1016,0.8064859,0.8064859,0
1019,0.8566085,0.8570652,0
1021,0.8120472,0.8122882,0
1024,0.8120472,0.8122882,0
1027,0.796476,0.796476,0
1029,0.796476,0.796476,0
1031,0.7364823,0.7359507,0
1034,0.7138155,0.7135413,0
1036,0.7138155,0.7135413,0
1038,0.6852845,0.6847132,0
1041,0.6852845,0.6847132,0
1043,0.6407191,0.6404136,0
1045,0.6407191,0.6404136,0
1048,0.6258884,0.6252628,0.01978234
1050,0.6132555,0.612617,0.01978234
1052,0.6132555,0.612617,0.01978234
1054,0.564406,0.5637122,0.01978234
1057,0.564406,0.5637122,0.01978234
1059,0.5450047,0.5439265,0.02797646
1061,0.5450047,0.5439265,0.02797646
1064,0.5395923,0.5388666,0.01978234
1067,0.5286014,0.5278606,0.02797646
1069,0.5286014,0.5278606,0.02797646
1072,0.6199199,0.6189722,0.01978234
1074,0.6199199,0.6189722,0.01978234
1076,0.7010924,0.7002546,0
1079,0.7060983,0.7052664,0.01978234
1081,0.7060983,0.7052664,0.01978234
1083,0.7102429,0.709416,0.01978234
1086,0.7102429,0.709416,0.01978234
1088,0.6844273,0.6838553,0.01978234
1090,0.6844273,0.6838553,0.01978234
1093,0.645587,0.6443735,0.02797646
1095,0.6293179,0.628073,0.02797646
1097,0.6293179,0.628073,0.02797646
1100,0.615485,0.6138933,0.03426402
1102,0.615485,0.6138933,0.03426402
1104,0.6932335,0.6918207,0.02797646
1107,0.8110828,0.8106001,0.01978234
1110,0.8110828,0.8106001,0.01978234
1112,0.8965662,0.8967844,0.01978234
1115,0.8965662,0.8967844,0.01978234
1117,1.028886,1.030026,0
1119,1.028886,1.030026,0
1122,0.9915005,0.9920924,0
1124,0.9620516,0.9626616,0
1126,0.9620516,0.9626616,0
1129,0.8793777,0.8793777,0.01978234
1131,0.8793777,0.8793777,0.01978234
1133,0.8311011,0.8308656,0.01978234
1136,0.8311011,0.8308656,0.01978234
1138,0.8751395,0.8746923,0.02797646
1140,0.9119305,0.9121451,0.01978234
1142,0.9119305,0.9121451,0.01978234
1145,1.015871,1.017026,0
1147,1.015871,1.017026,0
1149,1.0772,1.078653,0
1153,1.145005,1.147395,0
1155,1.145005,1.147395,0
1157,1.203498,1.206421,0
1160,1.203498,1.206421,0
1162,1.289526,1.293466,0
1164,1.289526,1.293466,0
1167,1.322046,1.32648,0
1169,1.350602,1.355375,0
1171,1.350602,1.355375,0
1174,1.376861,1.381968,0
1176,1.376861,1.381968,0
1178,1.401094,1.406392,0
1181,1.240173,1.24364,0
1183,1.240173,1.24364,0
1185,1.129865,1.132287,0.01978234
1188,1.129865,1.132287,0.01978234
1190,1.039858,1.041362,0.01978234
1192,1.039858,1.041362,0.01978234
1196,0.8948184,0.8950371,0.02797646
1198,0.8360308,0.8355626,0.03426402
1200,0.8360308,0.8355626,0.03426402
1203,0.7868362,0.7858408,0.03426402
1205,0.7868362,0.7858408,0.03426402
1207,0.7072059,0.7052664,0.04423466
1210,0.6783969,0.675796,0.04845664
1212,0.6783969,0.675796,0.04845664
1214,0.6537194,0.6504185,0.04845664
1217,0.6537194,0.6504185,0.04845664
1219,0.6311808,0.628073,0.05233916
1221,0.6311808,0.628073,0.05233916
1224,0.6013339,0.5970887,0.05595291
1226,0.615485,0.6113381,0.05595291
1228,0.615485,0.6113381,0.05595291
1230,0.6258884,0.6218109,0.05934703
1233,0.6258884,0.6218109,0.05934703
1235,0.6333472,0.6293179,0.05595291
1238,0.6333472,0.6293179,0.05595291
1241,0.6693957,0.6658786,0.05595291
1243,0.6815624,0.6778198,0.05934703
1245,0.6815624,0.6778198,0.05934703
1248,0.6996954,0.6960504,0.05934703
1250,0.6996954,0.6960504,0.05934703
1252,0.7284679,0.7246976,0.06255726
1255,0.7396637,0.7362165,0.06255726
1257,0.7396637,0.7362165,0.06255726
1259,0.7483428,0.7449358,0.0656106
1262,0.7483428,0.7449358,0.0656106
1264,0.7659171,0.7620752,0.07132626
1266,0.7659171,0.7620752,0.07132626
1269,0.7717707,0.7674484,0.07401875
1271,0.7775803,0.7730374,0.07401875
1273,0.7775803,0.7730374,0.07401875
1276,0.7845948,0.7798419,0.07912937
1278,0.7845948,0.7798419,0.07912937
1281,0.7868362,0.7818466,0.08156469
1284,0.7912999,0.7855918,0.08622923
1286,0.7912999,0.7855918,0.08622923
1288,0.7932757,0.7873334,0.08846933
1291,0.7932757,0.7873334,0.08846933
1293,0.7945082,0.7885751,0.09065409
1295,0.7945082,0.7885751,0.09065409
1298,0.7996635,0.7935224,0.09278741
1300,0.8016186,0.7950006,0.09487279
1302,0.8016186,0.7950006,0.09487279
1305,0.8047857,0.7979487,0.09487279
1307,0.8047857,0.7979487,0.09487279
1309,0.8055148,0.798929,0.09487279
1312,0.8047857,0.798684,0.09487279
1314,0.8047857,0.798684,0.09487279
1316,0.8045425,0.7981939,0.09278741
1318,0.8045425,0.7981939,0.09278741
1321,0.8035691,0.7972127,0.09278741
1324,0.8035691,0.7972127,0.09278741
1326,0.8021067,0.7957386,0.09487279
1329,0.8013745,0.7947544,0.09487279
1331,0.8013745,0.7947544,0.09487279
1333,0.800886,0.7945082,0.09487279
1336,0.800886,0.7945082,0.09487279
1338,0.8006416,0.7945082,0.09065409
1340,0.8006416,0.7945082,0.09065409
1343,0.8003972,0.7945082,0.09065409
1345,0.7962303,0.7903101,0.08846933
1347,0.7962303,0.7903101,0.08846933
1350,0.7945082,0.7885751,0.09065409
1352,0.7945082,0.7885751,0.09065409
1354,0.7942618,0.7880787,0.09065409
1357,0.7940154,0.7883269,0.08846933
1359,0.7940154,0.7883269,0.08846933
1361,0.7878303,0.7815963,0.08846933
1364,0.7878303,0.7815963,0.08846933
1367,0.7853427,0.7788376,0.08846933
1369,0.7853427,0.7788376,0.08846933
1372,0.7895671,0.783097,0.09065409
1374,0.7910526,0.7845948,0.09065409
1376,0.7910526,0.7845948,0.09065409
1379,0.7930291,0.7865875,0.08846933
1381,0.7930291,0.7865875,0.08846933
1383,0.7937689,0.7870849,0.09065409
1386,0.7930291,0.7865875,0.09065409
1388,0.7930291,0.7865875,0.09065409
1390,0.7920414,0.7855918,0.09065409
1393,0.7920414,0.7855918,0.09065409
1395,0.7917944,0.7853427,0.09065409
1397,0.7917944,0.7853427,0.09065409
1400,0.7930291,0.7863387,0.09065409
1402,0.7930291,0.7865875,0.09065409
1404,0.7930291,0.7865875,0.09065409
1406,0.7930291,0.7868362,0.09065409
1410,0.7930291,0.7868362,0.09065409
1412,0.7917944,0.7850935,0.09278741
1414,0.7917944,0.7850935,0.09278741
1417,0.7905577,0.7843454,0.09278741
1419,0.7905577,0.7840959,0.09278741
1421,0.7905577,0.7840959,0.09278741
1424,0.7915472,0.7843454,0.09691329
1426,0.7915472,0.7843454,0.09691329
1428,0.7912999,0.7840959,0.09691329
1431,0.7908052,0.7833468,0.09691329
1433,0.7908052,0.7833468,0.09691329
1435,0.7895671,0.7818466,0.09891172
1438,0.7895671,0.7818466,0.09891172
1440,0.7883269,0.7803435,0.1008706
1442,0.7883269,0.7803435,0.1008706
1445,0.7880787,0.7798419,0.1027921
1447,0.7870849,0.7790887,0.1046783
1449,0.7870849,0.7790887,0.1046783
1453,0.7815963,0.772531,0.1101434
1455,0.7815963,0.772531,0.1101434
1457,0.7730374,0.7628451,0.1186941
1460,0.7687222,0.7571809,0.1251145
1462,0.7687222,0.7571809,0.1251145
1464,0.762332,0.7491269,0.1341704
1467,0.762332,0.7491269,0.1341704
1469,0.7566639,0.742568,0.1384764
1471,0.7566639,0.742568,0.1384764
1474,0.7519946,0.7370135,0.1426525
1476,0.7465102,0.7300779,0.1506579
1478,0.7465102,0.7300779,0.1506579
1481,0.7449358,0.7279305,0.1532334
1483,0.7436213,0.7265852,0.1570175
1485,0.7472962,0.729005,0.1619255
1488,0.7501709,0.7311491,0.166689
1490,0.7501709,0.7311491,0.166689
1492,0.7558876,0.7351527,0.1735894
1495,0.7558876,0.7351527,0.1735894
1498,0.7587299,0.7372789,0.1780411
1500,0.7587299,0.7372789,0.1780411
1502,0.7646385,0.7409853,0.1876719
1505,0.7674484,0.7428315,0.191797
1507,0.7674484,0.7428315,0.191797
1509,0.7699938,0.7444103,0.1958353
1512,0.8367326,0.8055148,0.2238118
1514,0.8924097,0.85638,0.2470816
1516,0.8924097,0.85638,0.2470816
1519,1.004636,0.9585876,0.2954137
1521,1.060356,1.008912,0.3202056
1523,1.060356,1.008912,0.3202056
1526,1.155552,1.095215,0.3620769
1528,1.155552,1.095215,0.3620769
1530,1.196485,1.131942,0.3810355
1533,1.262846,1.191569,0.4111691
1536,1.262846,1.191569,0.4111691
1538,1.289526,1.214826,0.4252063
1541,1.289526,1.214826,0.4252063
1543,1.334715,1.25445,0.4480613
1545,1.334715,1.25445,0.4480613
1548,1.369879,1.28527,0.466462
1550,1.385786,1.299353,0.4743652
1552,1.385786,1.299353,0.4743652
1555,1.394795,1.305962,0.4809199
1557,1.394795,1.305962,0.4809199
1559,1.412777,1.320714,0.4933717
1562,1.39297,1.295733,0.5016313
1564,1.39297,1.295733,0.5016313
1566,1.368307,1.262536,0.5162413
1569,1.368307,1.262536,0.5162413
1571,1.368879,1.259587,0.5233933
1573,1.368879,1.259587,0.5233933
1575,1.370879,1.260209,0.5271187
1579,1.37202,1.256165,0.5377761
1581,1.37202,1.256165,0.5377761
1583,1.374585,1.256321,0.5428462
1586,1.374585,1.256321,0.5428462
1588,1.349152,1.221733,0.5567266
1590,1.349152,1.221733,0.5567266
1593,1.341588,1.210146,0.5630175
1595,1.294222,1.151141,0.575053
1597,1.294222,1.151141,0.575053
1600,1.278247,1.130039,0.5808088
1602,1.278247,1.130039,0.5808088
1604,1.239226,1.078653,0.5931431
1607,1.22605,1.059802,0.5990517
1609,1.22605,1.059802,0.5990517
1611,1.20431,1.028696,0.6084505
1614,1.20431,1.028696,0.6084505
1616,1.195504,1.015871,0.612617
1618,1.195504,1.015871,0.612617
1622,1.178192,0.9944565,0.6145305
1624,1.172364,0.9861575,0.616438
1626,1.172364,0.9861575,0.616438
1629,1.164661,0.9767869,0.6170725
1631,1.164661,0.9767869,0.6170725
1633,1.162306,0.974179,0.616438
1636,1.156229,0.9671232,0.6158028
1638,1.156229,0.9671232,0.6158028
1640,1.14961,0.9596078,0.6158028
1643,1.14961,0.9596078,0.6158028
1645,1.135394,0.9408684,0.6180231
1647,1.135394,0.9408684,0.6180231
1650,1.11452,0.9123595,0.6227542
1652,1.119251,0.920261,0.6199199
1654,1.123439,0.9261956,0.6183397
1657,1.126917,0.930832,0.6177064
1659,1.126917,0.930832,0.6177064
1661,1.141582,0.953881,0.6097356
1664,1.164829,0.9881397,0.5990517
1667,1.164829,0.9881397,0.5990517
1669,1.173865,1.000929,0.5957764
1671,1.173865,1.000929,0.5957764
1674,1.206907,1.048292,0.5808088
1676,1.206907,1.048292,0.5808088
1678,1.220932,1.070823,0.5699261
1681,1.222213,1.075018,0.5650989
1683,1.222213,1.075018,0.5650989
1685,1.24537,1.107652,0.5539077
1688,1.24537,1.107652,0.5539077
1690,1.264085,1.131769,0.5478694
1692,1.264085,1.131769,0.5478694
1695,1.308806,1.187291,0.5363187
1697,1.333982,1.21724,0.5315546
1699,1.333982,1.21724,0.5315546
1702,1.379133,1.270724,0.5226451
1704,1.379133,1.270724,0.5226451
1707,1.418169,1.316112,0.5158621
1710,1.436541,1.338229,0.5101407
1712,1.436541,1.338229,0.5101407
1714,1.468071,1.375297,0.5016313
1717,1.468071,1.375297,0.5016313
1719,1.480416,1.390016,0.4977152
1721,1.480416,1.390016,0.4977152
1724,1.502459,1.415822,0.4909863
1726,1.512585,1.427522,0.4885893
1728,1.512585,1.427522,0.4885893
1731,1.534166,1.453738,0.4788812
1733,1.534166,1.453738,0.4788812
1735,1.543703,1.465002,0.4751895
1738,1.561977,1.487932,0.4635163
1740,1.561977,1.487932,0.4635163
1742,1.570224,1.498024,0.4588492
1745,1.570224,1.498024,0.4588492
1747,1.581524,1.514136,0.4449939
1750,1.581524,1.514136,0.4449939
1752,1.587206,1.521485,0.4396856
1755,1.594587,1.533783,0.4233615
1757,1.594587,1.533783,0.4233615
1759,1.604253,1.547628,0.4092611
1762,1.604253,1.547628,0.4092611
1764,1.609611,1.555196,0.4025119
1766,1.615194,1.562227,0.3971285
1769,1.615194,1.562227,0.3971285
1771,1.504932,1.46273,0.3409232
1773,1.504932,1.46273,0.3409232
1776,1.401653,1.368879,0.289391
1778,1.401653,1.368879,0.289391
1780,1.349732,1.321306,0.2639296
1783,1.27057,1.248665,0.2238118
1785,1.27057,1.248665,0.2238118
1787,1.228601,1.210146,0.2017412
1790,1.228601,1.210146,0.2017412
1793,1.163148,1.150291,0.1594904
1795,1.163148,1.150291,0.1594904
1798,1.137288,1.127091,0.1398823
1800,1.09593,1.089303,0.1083524
1802,1.09593,1.089303,0.1083524
1805,1.109417,1.104821,0.09487279
1807,1.109417,1.104821,0.09487279
1809,1.12657,1.12431,0.0656106
1812,1.146371,1.145176,0.05595291
1814,1.146371,1.145176,0.05595291
1816,1.173699,1.173532,0.03426402
1819,1.173699,1.173532,0.03426402
1821,1.193046,1.19321,0.02797646
1823,1.193046,1.19321,0.02797646
1826,1.219649,1.220451,0
1828,1.231782,1.232576,0
1830,1.231782,1.232576,0
1833,1.248038,1.249135,0
1836,1.248038,1.249135,0
1838,1.215631,1.216597,0
1840,1.164829,1.165501,0
1843,1.164829,1.165501,0
1845,1.129692,1.130212,0
1847,1.129692,1.130212,0
1850,1.073561,1.073925,0
1852,1.073561,1.073925,0
1854,1.038352,1.038728,0
1857,0.9813836,0.9815831,-0.01978234
1859,0.9813836,0.9815831,-0.01978234
1861,0.9524438,0.9530601,-0.01978234
1864,0.9524438,0.9530601,-0.01978234
1866,0.9050379,0.9059024,-0.02797646
1868,0.9050379,0.9059024,-0.02797646
1871,0.8268523,0.8273254,-0.05595291
1873,0.7049889,0.7030433,-0.1027921
1875,0.7049889,0.7030433,-0.1027921
1879,0.6425489,0.6367366,-0.1282043
1881,0.6425489,0.6367366,-0.1282043
1883,0.5460806,0.53008,-0.1724585
1886,0.5366834,0.5196414,-0.1845175
1888,0.5366834,0.5196414,-0.1845175
1890,0.5169988,0.4973219,-0.2055842
1893,0.5169988,0.4973219,-0.2055842
1895,0.5252593,0.5078341,-0.2093567
1897,0.5252593,0.5078341,-0.2093567
1900,0.530449,0.5166202,-0.2185032
1902,0.5399548,0.5366834,-0.2193969
1904,0.5457222,0.5366834,-0.2193969
1907,0.5485832,0.5410409,-0.2220564
1909,0.5485832,0.5410409,-0.2220564
1911,0.556375,0.5496522,-0.2229358
1914,0.5626699,0.556375,-0.2272819
1916,0.5626699,0.556375,-0.2272819
1918,0.5647526,0.5588315,-0.2281412
1922,0.5647526,0.5588315,-0.2281412
1924,0.5650989,0.5584812,-0.2264194
1926,0.5650989,0.5584812,-0.2264194
1928,0.5654452,0.5584812,-0.2246844
1931,0.5661368,0.5584812,-0.2229358
1933,0.5661368,0.5584812,-0.2229358
1935,0.5654452,0.556375,-0.2211734
1938,0.5654452,0.556375,-0.2211734
1940,0.5640592,0.5546138,-0.2211734
1942,0.5442861,0.533025,-0.2185032
1945,0.5442861,0.533025,-0.2185032
1947,0.5442861,0.533025,-0.2185032
1949,0.5442861,0.533025,-0.2185032
1952,0.5442861,0.533025,-0.2185032
1954,0.5442861,0.533025,-0.2185032
1956,0.5112901,0.4992853,-0.2121421
1959,0.4467493,0.4334104,-0.2007689
1961,0.4467493,0.4334104,-0.2007689
1964,0.4168407,0.4020255,-0.1948336
1967,0.4168407,0.4020255,-0.1948336
1969,0.3674413,0.3516591,-0.1802258
1971,0.3674413,0.3516591,-0.1802258
1974,0.3471792,0.3310224,-0.1724585
1976,0.3280534,0.3109043,-0.1643245
1978,0.3280534,0.3109043,-0.1643245
1981,0.3250574,0.3077414,-0.1631294
1983,0.3250574,0.3077414,-0.1631294
1985,0.3214254,0.3058279,-0.1532334
1988,0.3202056,0.3058279,-0.1440177
1990,0.3202056,0.3058279,-0.1440177
1992,0.3454843,0.3322025,-0.1398823
1995,0.3454843,0.3322025,-0.1398823
1997,0.3830841,0.3706227,-0.1426525
1999,0.3830841,0.3706227,-0.1426525
2002,0.3951527,0.3830841,-0.14537
2004,0.4029978,0.3921704,-0.1356209
2007,0.4029978,0.3921704,-0.1356209
2010,0.4135417,0.4044518,-0.1235407
2012,0.4135417,0.4044518,-0.1235407
2014,0.4383485,0.4279585,-0.1297215
2016,0.4467493,0.4352126,-0.132704
2019,0.4467493,0.4352126,-0.132704
2021,0.4735395,0.4614008,-0.1384764
2023,0.4735395,0.4614008,-0.1384764
2026,0.4829499,0.4706381,-0.1412742
2028,0.4829499,0.4706381,-0.1412742
2030,0.5482264,0.5319225,-0.1582588
2033,0.5723243,0.5546138,-0.165511
2035,0.5723243,0.5546138,-0.165511
2037,0.5581307,0.5392296,-0.166689
2040,0.5581307,0.5392296,-0.166689
2042,0.5521386,0.533025,-0.1690205
2044,0.5521386,0.533025,-0.1690205
2048,0.6641131,0.6507192,-0.1532334
2050,0.7066523,0.6952065,-0.1467098
2052,0.7066523,0.6952065,-0.1467098
2055,0.8235324,0.8185275,-0.1219466
2057,0.8235324,0.8185275,-0.1219466
2059,0.8693066,0.8666012,-0.1136409
2062,0.9693463,0.9715644,-0.09065409
2064,0.9693463,0.9715644,-0.09065409
2066,1.04324,1.048852,-0.07661668
2069,1.04324,1.048852,-0.07661668
2071,1.095037,1.102162,-0.06852804
2073,1.095037,1.102162,-0.06852804
2076,1.179022,1.188609,-0.05595291
2078,1.185807,1.195667,-0.04423466
2080,1.185807,1.195667,-0.04423466
2083,1.20301,1.21402,-0.02797646
2085,1.20301,1.21402,-0.02797646
2087,1.201382,1.212246,-0.01978234
2091,1.205285,1.215953,0
2093,1.205285,1.215953,0
2095,1.207394,1.217561,0
2098,1.207394,1.217561,0
2100,1.217079,1.227007,0
2102,1.217079,1.227007,0
2104,1.35393,1.360562,0.08622923
2107,1.408894,1.413608,0.1153499
2109,1.408894,1.413608,0.1153499
2111,1.531357,1.530718,0.1678588
2114,1.531357,1.530718,0.1678588
2116,1.595078,1.591516,0.191797
2118,1.703183,1.691654,0.2548778
2121,1.703183,1.691654,0.2548778
2123,1.749435,1.734494,0.2811602
2125,1.749435,1.734494,0.2811602
2128,1.820159,1.798418,0.3274564
2130,1.820159,1.798418,0.3274564
2132,1.847374,1.822309,0.3483046
2136,1.888755,1.857727,0.382573
2138,1.888755,1.857727,0.382573
2140,1.923561,1.887097,0.4102162
2143,1.923561,1.887097,0.4102162
2145,1.930974,1.892275,0.4201138
2147,1.930974,1.892275,0.4201138
2150,1.953244,1.910493,0.4396856
2152,1.955547,1.91162,0.4441136
2154,1.955547,1.91162,0.4441136
2157,1.970005,1.923662,0.4558544
2159,1.970005,1.923662,0.4558544
2161,1.936843,1.892585,0.4410186
2164,1.89682,1.855091,0.4238235
2166,1.89682,1.855091,0.4238235
2168,1.863932,1.825313,0.4063823
2171,1.863932,1.825313,0.4063823
2173,1.821879,1.787065,0.382573
2176,1.821879,1.787065,0.382573
2179,1.798201,1.766357,0.3663747
2181,1.768904,1.740801,0.3454843
2183,1.768904,1.740801,0.3454843
2185,1.760698,1.733817,0.339197
2188,1.760698,1.733817,0.339197
2190,1.738438,1.715091,0.3208161
2192,1.733026,1.710636,0.315899
2195,1.733026,1.710636,0.315899
2197,1.805152,1.786517,0.3039024
2199,1.805152,1.786517,0.3039024
2202,1.822416,1.809375,0.2762456
2204,1.822416,1.809375,0.2762456
2206,1.814883,1.805369,0.2571706
2209,1.777842,1.773875,0.2185032
2211,1.777842,1.773875,0.2185032
2213,1.752565,1.750889,0.2007689
2216,1.752565,1.750889,0.2007689
2219,1.708919,1.711322,0.1594904
2221,1.676197,1.681443,0.1170339
2224,1.676197,1.681443,0.1170339
2226,1.665422,1.671638,0.1027921
2228,1.665422,1.671638,0.1027921
2231,1.647345,1.653748,0.08622923
2233,1.647345,1.653748,0.08622923
2235,1.622689,1.629308,0.05934703
2238,1.591024,1.597039,0.03956468
2240,1.591024,1.597039,0.03956468
2242,1.580039,1.585849,0.03426402
2245,1.580039,1.585849,0.03426402
2247,1.557585,1.562478,0.01978234
2249,1.557585,1.562478,0.01978234
2252,1.54965,1.554441,0
2254,1.560222,1.56448,0
2256,1.560222,1.56448,0
2259,1.564731,1.568852,0
2262,1.564731,1.568852,0
2264,1.587329,1.591147,0
2267,1.604009,1.607665,0
2269,1.604009,1.607665,0
2271,1.668709,1.672106,0.01978234
2273,1.668709,1.672106,0.01978234
2276,1.76835,1.770562,0.05934703
2278,1.76835,1.770562,0.05934703
2280,1.829276,1.830132,0.09278741
2283,1.925696,1.923561,0.1412742
2285,1.925696,1.923561,0.1412742
2287,1.969508,1.965231,0.1690205
2290,1.969508,1.965231,0.1690205
2292,2.041814,2.033651,0.2130625
2294,2.038361,2.028929,0.2238118
2297,2.038361,2.028929,0.2238118
2299,2.038169,2.027579,0.234068
2301,2.038169,2.027579,0.234068
2305,2.073771,2.059186,0.2697954
2307,2.073771,2.059186,0.2697954
2309,2.090409,2.074242,0.2846186
2312,2.084595,2.066964,0.2987072
2314,2.084595,2.066964,0.2987072
2316,2.087317,2.068479,0.311533
2319,2.087317,2.068479,0.311533
2321,2.06668,2.046506,0.3214254
2323,2.06668,2.046506,0.3214254
2326,2.041047,2.018194,0.3397734
2328,2.057379,2.031725,0.3593647
2330,2.057379,2.031725,0.3593647
2333,2.08666,2.055856,0.3921704
2335,2.08666,2.055856,0.3921704
2337,2.111091,2.077825,0.4087828
2340,2.15286,2.115259,0.4365593
2342,2.15286,2.115259,0.4365593
2344,2.141923,2.104684,0.4347627
2348,2.141923,2.104684,0.4347627
2350,2.130379,2.093309,0.4343124
2352,2.130379,2.093309,0.4343124
2355,2.128541,2.091064,0.4361108
2357,2.175648,2.138722,0.4374548
2359,2.175648,2.138722,0.4374548
2361,2.213462,2.175019,0.4484978
2364,2.213462,2.175019,0.4484978
2366,2.230024,2.190352,0.456712
2368,2.257848,2.215318,0.4739525
2371,2.257848,2.215318,0.4739525
2373,2.281219,2.235984,0.4905876
2375,2.281219,2.235984,0.4905876
2378,2.289697,2.243237,0.4977152
2380,2.289697,2.243237,0.4977152
2382,2.306984,2.258194,0.5105241
2385,2.315029,2.265463,0.5151029
2387,2.315029,2.265463,0.5151029
2390,2.331373,2.280446,0.5241405
2393,2.331373,2.280446,0.5241405
2395,2.335316,2.283534,0.5278606
2397,2.345101,2.291833,0.5355885
2400,2.345101,2.291833,0.5355885
2402,2.351935,2.297632,0.5410409
2404,2.351935,2.297632,0.5410409
2407,2.35443,2.299676,0.5428462
2409,2.35443,2.299676,0.5428462
2411,2.440719,2.391301,0.5341251
2414,2.570702,2.529097,0.5196414
2416,2.570702,2.529097,0.5196414
2418,2.56468,2.523364,0.5177552
2421,2.56468,2.523364,0.5177552
2423,2.561244,2.520181,0.5158621
2425,2.561244,2.520181,0.5158621
2428,2.531341,2.489236,0.5166202
2430,2.49175,2.448006,0.518133
2433,2.49175,2.448006,0.518133
2436,2.479308,2.434858,0.5196414
2438,2.479308,2.434858,0.5196414
2440,2.445206,2.400696,0.5112901
2443,2.413137,2.368603,0.5059038
2445,2.413137,2.368603,0.5059038
2447,2.396779,2.352185,0.5043544
2449,2.396779,2.352185,0.5043544
2452,2.339168,2.297632,0.4813265
2454,2.339168,2.297632,0.4813265
2456,2.302823,2.263821,0.4639383
2459,2.249685,2.214346,0.4379019
2461,2.249685,2.214346,0.4379019
2463,2.189727,2.161298,0.3891652
2466,2.189727,2.161298,0.3891652
2468,2.167718,2.141831,0.3711503
2470,2.114703,2.094804,0.324455
2473,2.114703,2.094804,0.324455
2476,2.094711,2.076977,0.3071049
2478,2.094711,2.076977,0.3071049
2481,2.052331,2.038649,0.2705197
2483,2.052331,2.038649,0.2705197
2485,2.043922,2.031629,0.2571706
2488,2.050137,2.037688,0.2586879
2490,2.050137,2.037688,0.2586879
2492,2.057759,2.045453,0.2579304
2495,2.057759,2.045453,0.2579304
2497,2.044784,2.033362,0.2502292
2499,2.044784,2.033362,0.2502292
2502,2.023617,2.013631,0.2373883
2504,2.044401,2.033939,0.2430897
2506,2.044401,2.033939,0.2430897
2509,2.051186,2.040568,0.2438933
2511,2.051186,2.040568,0.2438933
2513,2.081777,2.070559,0.2517883
2516,2.092374,2.081119,0.254109
2519,2.092374,2.081119,0.254109
2521,2.114703,2.103196,0.2586879
2524,2.114703,2.103196,0.2586879
2526,2.122463,2.110905,0.2601963
2528,2.122463,2.110905,0.2601963
2531,2.135426,2.123662,0.2609472
2533,2.13982,2.128173,0.2609472
2535,2.13982,2.128173,0.2609472
2537,2.148401,2.1368,0.2601963
2540,2.148401,2.1368,0.2601963
2542,2.151314,2.139912,0.2586879
2544,2.153133,2.141557,0.2579304
2547,2.153133,2.141557,0.2579304
2549,2.152587,2.141192,0.2571706
2551,2.152587,2.141192,0.2571706
2554,2.145757,2.133867,0.2571706
2556,2.145757,2.133867,0.2571706
2558,2.143202,2.131297,0.2571706
2562,2.131205,2.118956,0.2564087
2564,2.131205,2.118956,0.2564087
2566,2.126885,2.114518,0.2564087
2569,2.126885,2.114518,0.2564087
2571,2.113592,2.101148,0.2533378
2573,2.108772,2.096392,0.2525642
2576,2.108772,2.096392,0.2525642
2578,2.102265,2.089753,0.25101
2580,2.102265,2.089753,0.25101
2583,2.098538,2.085816,0.2502292
2585,2.098538,2.085816,0.2502292
2587,2.097978,2.084877,0.25101
2590,2.097045,2.083657,0.2525642
2592,2.097045,2.083657,0.2525642
2594,2.097045,2.083563,0.254109
2597,2.097045,2.083563,0.254109
2599,2.096952,2.083468,0.2548778
2601,2.096952,2.083468,0.2548778
2605,2.101241,2.087317,0.2564087
2607,2.107193,2.093122,0.2571706
2609,2.107193,2.093122,0.2571706
2612,2.111091,2.097045,0.2571706
2614,2.111091,2.097045,0.2571706
2616,2.116831,2.102638,0.2571706
2619,2.12191,2.107936,0.2564087
2621,2.12191,2.107936,0.2564087
2623,2.129368,2.115536,0.2556444
2625,2.129368,2.115536,0.2556444
2628,2.13405,2.120249,0.2548778
2630,2.13405,2.120249,0.2548778
2632,2.140735,2.126977,0.2533378
2635,2.147489,2.133867,0.2525642
2637,2.147489,2.133867,0.2525642
2639,2.15731,2.14375,0.25101
2642,2.15731,2.14375,0.25101
2644,2.160573,2.147216,0.249446
2647,2.160664,2.147307,0.2486604
2650,2.160664,2.147307,0.2486604
2652,2.101893,2.091251,0.2229358
2654,2.101893,2.091251,0.2229358
2657,2.05338,2.044592,0.2036718
2659,2.05338,2.044592,0.2036718
2661,1.960046,1.954847,0.1643245
2664,1.915608,1.911824,0.14537
2666,1.915608,1.911824,0.14537
2668,1.838028,1.836643,0.1101434
2671,1.838028,1.836643,0.1101434
2673,1.803417,1.802874,0.09487279
2675,1.748988,1.749659,0.06852804
2678,1.748988,1.749659,0.06852804
2680,1.708117,1.709606,0.05233916
2682,1.708117,1.709606,0.05233916
2685,1.69177,1.693504,0.04423466
2688,1.69177,1.693504,0.04423466
2690,1.663188,1.665539,0.02797646
2693,1.650787,1.653156,0.01978234
2695,1.650787,1.653156,0.01978234
2697,1.635901,1.638292,0
2700,1.635901,1.638292,0
2702,1.628227,1.630629,0.01978234
2704,1.628227,1.630629,0.01978234
2707,1.620758,1.623171,0
2709,1.615921,1.618583,0
2711,1.615921,1.618583,0
2713,1.6158,1.618341,0
2716,1.6158,1.618341,0
2718,1.613861,1.616405,0
2720,1.611919,1.614467,0
2723,1.611919,1.614467,0
2725,1.609368,1.611919,0
2727,1.61034,1.612769,-0.01978234
2731,1.609733,1.612405,0
2733,1.609733,1.612405,0
2735,1.608395,1.610948,0
2738,1.609368,1.611919,0
2740,1.609368,1.611919,0
2742,1.608273,1.610705,-0.01978234
2745,1.608273,1.610705,-0.01978234
2747,1.609125,1.611434,-0.01978234
2749,1.60803,1.61034,0
2752,1.60803,1.61034,0
2754,1.605838,1.60803,0
2756,1.605838,1.60803,0
2759,1.604862,1.606812,0
2761,1.604862,1.606812,0
2763,1.604741,1.606569,0
2766,1.602788,1.604497,0
2768,1.602788,1.604497,0
2770,1.601811,1.603521,-0.01978234
2774,1.601811,1.603521,-0.01978234
2776,1.598632,1.600467,0
2778,1.598632,1.600467,0
2781,1.603521,1.604984,0
2783,1.608638,1.61034,0
2785,1.608638,1.61034,0
2788,1.610097,1.611555,0
2790,1.610097,1.611555,0
2792,1.609976,1.611312,0
2794,1.620033,1.621241,-0.01978234
2797,1.620033,1.621241,-0.01978234
2799,1.62293,1.624135,-0.01978234
2801,1.62293,1.624135,-0.01978234
2804,1.621844,1.62293,-0.01978234
2806,1.621844,1.62293,-0.01978234
2808,1.620879,1.622086,-0.01978234
2811,1.616405,1.617494,-0.01978234
2813,1.616405,1.617494,-0.01978234
2816,1.613376,1.614467,-0.01978234
2819,1.613376,1.614467,-0.01978234
2821,1.608395,1.609368,-0.01978234
2823,1.604253,1.605106,-0.02797646
2826,1.604253,1.605106,-0.02797646
2828,1.602055,1.60291,-0.02797646
2830,1.602055,1.60291,-0.02797646
2833,1.598019,1.598754,-0.02797646
2835,1.598019,1.598754,-0.02797646
2837,1.597039,1.598019,-0.02797646
2840,1.594709,1.595814,-0.02797646
2842,1.594709,1.595814,-0.02797646
2844,1.588931,1.589916,-0.01978234
2847,1.588931,1.589916,-0.01978234
2849,1.579172,1.58041,0
2851,1.579791,1.580782,0
2854,1.579791,1.580782,0
2856,1.579667,1.580534,0
2859,1.579667,1.580534,0
2862,1.579667,1.580534,0
2864,1.579667,1.580534,0
2866,1.580039,1.580906,0
2869,1.576939,1.577808,0
2871,1.576939,1.577808,0
2873,1.57147,1.572341,0
2876,1.57147,1.572341,0
2878,1.568353,1.569102,-0.01978234
2880,1.568353,1.569102,-0.01978234
2882,1.562728,1.563479,0
2885,1.557083,1.557837,-0.01978234
2887,1.557083,1.557837,-0.01978234
2889,1.548007,1.548766,0
2892,1.548007,1.548766,0
2894,1.542816,1.543576,0
2896,1.535059,1.535696,-0.01978234
2899,1.535059,1.535696,-0.01978234
2902,1.531868,1.532635,-0.01978234
2904,1.531868,1.532635,-0.01978234
2907,1.51142,1.512067,0
2909,1.51142,1.512067,0
2911,1.503371,1.504022,0
2914,1.483717,1.484376,-0.01978234
2916,1.483717,1.484376,-0.01978234
2918,1.467805,1.468471,-0.01978234
2921,1.467805,1.468471,-0.01978234
2923,1.460855,1.461391,-0.02797646
2925,1.454815,1.455218,-0.02797646
2928,1.454815,1.455218,-0.02797646
2930,1.441029,1.441708,-0.02797646
2932,1.441029,1.441708,-0.02797646
2935,1.424915,1.425601,0
2937,1.424915,1.425601,0
2939,1.415822,1.416236,0
2942,1.403606,1.404024,0
2945,1.403606,1.404024,0
2947,1.399557,1.400116,0
2950,1.399557,1.400116,0
2952,1.408199,1.408616,0
2954,1.425738,1.426425,0
2957,1.425738,1.426425,0
2959,1.431902,1.432448,0
2961,1.431902,1.432448,0
2964,1.411392,1.411669,0.01978234
2966,1.411392,1.411669,0.01978234
2968,1.403327,1.403606,0.02797646
2970,1.357539,1.357106,0.03426402
2973,1.357539,1.357106,0.03426402
2975,1.339691,1.33896,0.03956468
2977,1.339691,1.33896,0.03956468
2980,1.300256,1.298901,0.05233916
2982,1.300256,1.298901,0.05233916
2984,1.289982,1.28816,0.05934703
2988,1.293315,1.291498,0.05934703
2990,1.293315,1.291498,0.05934703
2992,1.285118,1.282679,0.06852804
2995,1.285118,1.282679,0.06852804
2997,1.275796,1.273339,0.07132626
2999,1.260985,1.258033,0.07661668
3002,1.260985,1.258033,0.07661668
3004,1.249448,1.246312,0.07912937
3006,1.249448,1.246312,0.07912937
3009,1.230034,1.226369,0.08392937
3011,1.230034,1.226369,0.08392937
3013,1.21402,1.209822,0.08846933
3016,1.206907,1.202847,0.09065409
3018,1.206907,1.202847,0.09065409
3020,1.170694,1.166675,0.08622923
3023,1.170694,1.166675,0.08622923
3025,1.156229,1.1525,0.08622923
3027,1.118551,1.115047,0.08392937
3031,1.118551,1.115047,0.08392937
3033,1.090022,1.086425,0.08156469
3035,1.090022,1.086425,0.08156469
3038,1.098961,1.09593,0.07912937
3040,1.098961,1.09593,0.07912937
3042,1.109946,1.107475,0.07661668
3045,1.124484,1.122219,0.07661668
3047,1.124484,1.122219,0.07661668
3049,1.144321,1.142438,0.07401875
3052,1.144321,1.142438,0.07401875
3054,1.154197,1.15216,0.07661668
3056,1.154197,1.15216,0.07661668
3058,1.167178,1.165165,0.08156469
3061,1.177859,1.175365,0.08622923
3063,1.177859,1.175365,0.08622923
3065,1.181343,1.17869,0.09065409
3068,1.181343,1.17869,0.09065409
3070,1.189597,1.186797,0.09487279
3073,1.191897,1.188938,0.09691329
3076,1.191897,1.188938,0.09691329
3078,1.195667,1.19239,0.1046783
3080,1.195667,1.19239,0.1046783
3083,1.196976,1.193374,0.1083524
3085,1.196976,1.193374,0.1083524
3087,1.274568,1.266405,0.1480375
3090,1.390439,1.375297,0.2036718
3092,1.390439,1.375297,0.2036718
3094,1.465136,1.444556,0.2414744
3097,1.465136,1.444556,0.2414744
3099,1.581277,1.551291,0.3000144
3101,1.637694,1.602422,0.329838
3104,1.637694,1.602422,0.329838
3106,1.727257,1.683188,0.3784592
3108,1.727257,1.683188,0.3784592
3111,1.791112,1.739113,0.4177785
3113,1.791112,1.739113,0.4177785
3116,1.815746,1.760142,0.4347627
3119,1.851818,1.789582,0.4643598
3121,1.851818,1.789582,0.4643598
3123,1.879303,1.811105,0.4889896
3126,1.879303,1.811105,0.4889896
3128,1.887408,1.815638,0.5020211
3130,1.905365,1.827991,0.5237671
3133,1.905365,1.827991,0.5237671
3135,1.909366,1.828527,0.5355885
3137,1.909366,1.828527,0.5355885
3140,1.920913,1.83451,0.555319
3142,1.920913,1.83451,0.555319
3144,1.927524,1.83579,0.5726661
3146,1.929453,1.835151,0.5811456
3149,1.929453,1.835151,0.5811456
3151,1.933303,1.836536,0.5891711
3153,1.933303,1.836536,0.5891711
3156,1.928134,1.825099,0.6068404
3159,1.928134,1.825099,0.6068404
3161,1.918161,1.808294,0.6249498
3164,1.911518,1.797656,0.6351982
3166,1.911518,1.797656,0.6351982
3168,1.89651,1.774758,0.6540186
3171,1.89651,1.774758,0.6540186
3173,1.883567,1.754351,0.6711472
3175,1.869279,1.735283,0.680988
3178,1.869279,1.735283,0.680988
3180,1.851289,1.70869,0.6982958
3182,1.851289,1.70869,0.6982958
3185,1.845996,1.699733,0.7063754
3187,1.845996,1.699733,0.7063754
3189,1.8312,1.677364,0.7203645
3192,1.827028,1.669881,0.7271236
3194,1.827028,1.669881,0.7271236
3196,1.827885,1.664716,0.7407211
3200,1.827885,1.664716,0.7407211
3202,1.801462,1.636379,0.7391344
3204,1.779383,1.614467,0.7338206
3207,1.779383,1.614467,0.7338206
3209,1.747197,1.581772,0.7273927
3211,1.747197,1.581772,0.7273927
3214,1.702034,1.535569,0.719005
3216,1.702034,1.535569,0.719005
3218,1.634105,1.465002,0.707759
3221,1.526878,1.346103,0.7038778
3223,1.526878,1.346103,0.7038778
3225,1.486616,1.300407,0.7035998
3228,1.486616,1.300407,0.7035998
3230,1.40667,1.208042,0.7038778
3232,1.40667,1.208042,0.7038778
3234,1.375724,1.171362,0.7047113
3237,1.296035,1.082998,0.6946434
3239,1.296035,1.082998,0.6946434
3241,1.264704,1.047358,0.6915378
3245,1.264704,1.047358,0.6915378
3247,1.29074,1.082636,0.6864257
3249,1.302512,1.096287,0.6872803
3252,1.302512,1.096287,0.6872803
3254,1.304313,1.097179,0.6892704
3256,1.304313,1.097179,0.6892704
3259,1.303413,1.093606,0.6937978
3261,1.303413,1.093606,0.6937978
3263,1.336181,1.133151,0.6929511
3266,1.383384,1.189268,0.6926687
3268,1.383384,1.189268,0.6926687
3270,1.415269,1.227645,0.6909717
3273,1.415269,1.227645,0.6909717
3275,1.46206,1.283137,0.6889865
3277,1.444149,1.258499,0.6957693
3280,1.444149,1.258499,0.6957693
3282,1.436813,1.248352,0.6988559
3284,1.436813,1.248352,0.6988559
3288,1.441572,1.252889,0.7002546
3290,1.441572,1.252889,0.7002546
3292,1.447668,1.258033,0.7033216
3295,1.415545,1.181012,0.7165515
3297,1.389171,1.181012,0.7165515
3299,1.366733,1.151141,0.7217214
3302,1.366733,1.151141,0.7217214
3304,1.299804,1.058509,0.7378095
3306,1.274415,1.022399,0.7441474
3309,1.274415,1.022399,0.7441474
3311,1.303563,1.063305,0.7372789
3313,1.303563,1.063305,0.7372789
3316,1.313284,1.076655,0.7354187
3318,1.313284,1.076655,0.7354187
3320,1.347265,1.1196,0.7327532
3322,1.368736,1.14603,0.7322189
3325,1.368736,1.14603,0.7322189
3328,1.376293,1.156737,0.7295417
3330,1.376293,1.156737,0.7295417
3333,1.36085,1.139523,0.7276617
3335,1.36085,1.139523,0.7276617
3337,1.375297,1.159947,0.7230757
3340,1.396197,1.188938,0.7162784
3342,1.396197,1.188938,0.7162784
3344,1.424228,1.227485,0.7063754
3347,1.424228,1.227485,0.7063754
3349,1.434496,1.241593,0.7027649
3351,1.482661,1.294222,0.7083117
3354,1.482661,1.294222,0.7083117
3356,1.542689,1.355952,0.721179
3358,1.542689,1.355952,0.721179
3361,1.545857,1.353496,0.7322189
3363,1.545857,1.353496,0.7322189
3365,1.552426,1.351036,0.749649
3368,1.573461,1.372876,0.7538139
3371,1.573461,1.372876,0.7538139
3373,1.606325,1.40667,0.7610474
3376,1.606325,1.40667,0.7610474
3378,1.62534,1.427385,0.7631016
3380,1.655758,1.460051,0.7669383
3383,1.655758,1.460051,0.7669383
3385,1.678298,1.485035,0.7679582
3387,1.678298,1.485035,0.7679582
3390,1.687484,1.49554,0.7677034
3392,1.687484,1.49554,0.7677034
3394,1.671521,1.47618,0.7702479
3397,1.652445,1.453065,0.772531
3399,1.652445,1.453065,0.772531
3401,1.641156,1.439806,0.7735435
3403,1.641156,1.439806,0.7735435
3406,1.648651,1.448749,0.7727842
3408,1.65209,1.452526,0.7727842
3410,1.65209,1.452526,0.7727842
3414,1.616284,1.408894,0.7773286
3416,1.616284,1.408894,0.7773286
3418,1.603643,1.39311,0.7795909
3421,1.603643,1.39311,0.7795909
3423,1.56748,1.347991,0.7845948
3425,1.54535,1.319231,0.7895671
3428,1.54535,1.319231,0.7895671
3430,1.537861,1.309255,0.7917944
3432,1.537861,1.309255,0.7917944
3435,1.556077,1.330604,0.7920414
3437,1.556077,1.330604,0.7920414
3439,1.592868,1.375297,0.7898148
3442,1.607056,1.391986,0.7895671
3444,1.607056,1.391986,0.7895671
3446,1.660715,1.456831,0.7850935
3449,1.660715,1.456831,0.7850935
3451,1.681443,1.481473,0.7835966
3453,1.720901,1.528543,0.7800927
3457,1.720901,1.528543,0.7800927
3459,1.736861,1.547122,0.7790887
3461,1.726238,1.533783,0.7818466
3464,1.718283,1.523542,0.7840959
3466,1.718283,1.523542,0.7840959
3468,1.708002,1.509865,0.7880787
3471,1.695121,1.492003,0.7932757
3473,1.695121,1.492003,0.7932757
3475,1.677248,1.466871,0.8013745
3478,1.677248,1.466871,0.8013745
3480,1.667183,1.452526,0.8057577
3482,1.653392,1.432448,0.8130105
3485,1.653392,1.432448,0.8130105
3487,1.640679,1.413885,0.8192443
3489,1.640679,1.413885,0.8192443
3491,1.636499,1.407226,0.8218675
3494,1.636499,1.407226,0.8218675
3496,1.574704,1.344939,0.8047857
3499,1.549145,1.32456,0.7885751
3502,1.549145,1.32456,0.7885751
3504,1.546869,1.326774,0.7803435
3506,1.546869,1.326774,0.7803435
3509,1.543069,1.329868,0.7677034
3511,1.543069,1.329868,0.7677034
3513,1.522386,1.30731,0.7648944
3516,1.491085,1.273185,0.7602757
3518,1.491085,1.273185,0.7602757
3520,1.452661,1.228442,0.7592455
3523,1.452661,1.228442,0.7592455
3525,1.437766,1.210954,0.7587299
3527,1.455487,1.235906,0.7522548
3530,1.455487,1.235906,0.7522548
3532,1.46607,1.251483,0.747558
3534,1.46607,1.251483,0.747558
3537,1.481473,1.271186,0.7451985
3539,1.481473,1.271186,0.7451985
3542,1.504152,1.299955,0.7409853
3545,1.491085,1.283594,0.7428315
3547,1.491085,1.283594,0.7428315
3549,1.470868,1.25881,0.7449358
3552,1.470868,1.25881,0.7449358
3554,1.482925,1.272878,0.7444103
3556,1.500504,1.294222,0.7436213
3559,1.500504,1.294222,0.7436213
3561,1.483849,1.272417,0.7478197
3563,1.483849,1.272417,0.7478197
3566,1.458308,1.238911,0.7532945
3568,1.458308,1.238911,0.7532945
3570,1.437358,1.213053,0.7545922
3573,1.404999,1.173032,0.7566639
3575,1.404999,1.173032,0.7566639
3577,1.417341,1.189597,0.7545922
3579,1.417341,1.189597,0.7545922
3582,1.435178,1.213053,0.7509531
3585,1.427659,1.203823,0.7512136
3587,1.427659,1.203823,0.7512136
3590,1.41513,1.188938,0.751474
3592,1.41513,1.188938,0.751474
3594,1.406252,1.175698,0.7553698
3597,1.406252,1.175698,0.7553698
3599,1.392267,1.155044,0.7610474
3601,1.379275,1.137976,0.7628451
3604,1.379275,1.137976,0.7628451
3606,1.372733,1.130212,0.7628451
3608,1.372733,1.130212,0.7628451
3611,1.365301,1.120649,0.7636142
3613,1.365301,1.120649,0.7636142
3615,1.363436,1.117851,0.7641266
3618,1.390579,1.141753,0.7773286
3620,1.390579,1.141753,0.7773286
3622,1.433677,1.180846,0.796476
3625,1.433677,1.180846,0.796476
3628,1.459515,1.214665,0.7930291
3630,1.499591,1.266096,0.7875819
3633,1.499591,1.266096,0.7875819
3635,1.515299,1.28983,0.7793398
3637,1.515299,1.28983,0.7793398
3640,1.540531,1.326627,0.7674484
3642,1.540531,1.326627,0.7674484
3644,1.550786,1.341151,0.7631016
3647,1.512843,1.300557,0.7571809
3649,1.512843,1.300557,0.7571809
3651,1.478167,1.26145,0.7545922
3654,1.478167,1.26145,0.7545922
3656,1.460587,1.241435,0.7535542
3658,1.455891,1.238753,0.749388
3661,1.455891,1.238753,0.749388
3663,1.463799,1.249918,0.7459858
3665,1.463799,1.249918,0.7459858
3667,1.458576,1.24537,0.7433581
3671,1.458576,1.24537,0.7433581
3673,1.448884,1.234163,0.7428315
3675,1.430945,1.212085,0.7441474
3678,1.430945,1.212085,0.7441474
3680,1.416098,1.19321,0.7462481
3682,1.416098,1.19321,0.7462481
3685,1.41056,1.186137,0.7467723
3687,1.41056,1.186137,0.7467723
3689,1.398578,1.167178,0.7538139
3692,1.394093,1.160115,0.7561465
3694,1.394093,1.160115,0.7561465
3696,1.387057,1.146371,0.7641266
3699,1.387057,1.146371,0.7641266
3701,1.384232,1.14141,0.7666831
3703,1.377998,1.133497,0.7669383
3706,1.377998,1.133497,0.7669383
3708,1.375439,1.130385,0.7669383
3710,1.375439,1.130385,0.7669383
3714,1.421615,1.188774,0.7636142
3716,1.421615,1.188774,0.7636142
3718,1.438583,1.210469,0.7613045
3721,1.438447,1.210792,0.7607903
3723,1.438447,1.210792,0.7607903
3725,1.438719,1.212085,0.7592455
3728,1.438719,1.212085,0.7592455
3730,1.421752,1.19321,0.7566639
3732,1.415822,1.186632,0.7556288
3735,1.415822,1.186632,0.7556288
3737,1.402211,1.168016,0.7595032
3739,1.402211,1.168016,0.7595032
3742,1.397458,1.161464,0.7607903
3744,1.397458,1.161464,0.7607903
3746,1.391845,1.154197,0.7618184
3749,1.389876,1.151481,0.7618184
3751,1.389876,1.151481,0.7618184
3753,1.38508,1.145859,0.7618184
3756,1.38508,1.145859,0.7618184
3759,1.38508,1.145859,0.7618184
3761,1.383808,1.14415,0.7618184
3763,1.383808,1.14415,0.7618184
3766,1.382818,1.142952,0.7615615
3768,1.382818,1.142952,0.7615615
3770,1.381968,1.142267,0.7610474
3773,1.381968,1.142267,0.7610474
3775,1.381544,1.141582,0.7607903
3777,1.37743,1.137288,0.7600183
3780,1.37743,1.137288,0.7600183
3782,1.376008,1.135911,0.7597608
3784,1.376008,1.135911,0.7597608
3787,1.374301,1.134187,0.7589878
3789,1.374301,1.134187,0.7589878
3791,1.373873,1.133842,0.7587299
3794,1.372876,1.133324,0.7579558
3796,1.372876,1.133324,0.7579558
3799,1.372733,1.133151,0.7576976
3802,1.372733,1.133151,0.7576976
3804,1.371022,1.133151,0.7545922
3806,1.368736,1.133669,0.7499101
3809,1.368736,1.133669,0.7499101
3811,1.41513,1.19714,0.7378095
3813,1.41513,1.19714,0.7378095
3816,1.432994,1.221252,0.733287
3818,1.432994,1.221252,0.733287
3820,1.432721,1.219809,0.7348864
3823,1.432994,1.21997,0.7354187
3825,1.432994,1.21997,0.7354187
3827,1.425464,1.211277,0.7351527
3830,1.425464,1.211277,0.7351527
3832,1.413885,1.198447,0.7338206
3834,1.406252,1.187786,0.7359507
3837,1.406252,1.187786,0.7359507
3840,1.395496,1.172865,0.7393991
3842,1.395496,1.172865,0.7393991
3844,1.390157,1.165333,0.7409853
3847,1.390157,1.165333,0.7409853
3849,1.382676,1.154705,0.7436213
3851,1.379559,1.150801,0.7433581
3854,1.379559,1.150801,0.7433581
3856,1.375155,1.145859,0.7430948
3858,1.375155,1.145859,0.7430948
3861,1.371735,1.14261,0.741777
3863,1.367306,1.138492,0.7401926
3865,1.367306,1.138492,0.7401926
3868,1.366733,1.136944,0.7409853
3870,1.366733,1.136944,0.7409853
3872,1.367306,1.137116,0.7420408
3875,1.367306,1.137116,0.7420408
3877,1.369308,1.137116,0.7457234
3879,1.370593,1.13746,0.7478197
3883,1.370593,1.13746,0.7478197
3885,1.372163,1.1366,0.751474
3887,1.372163,1.1366,0.751474
3890,1.372876,1.135394,0.7545922
3892,1.372876,1.135394,0.7545922
3894,1.372163,1.133669,0.7558876
3897,1.371022,1.13125,0.7571809
3899,1.371022,1.13125,0.7571809
3901,1.370736,1.130558,0.7579558
3904,1.370736,1.130558,0.7579558
3906,1.367449,1.127091,0.7569224
3908,1.366303,1.126222,0.7566639
3911,1.366303,1.126222,0.7566639
3913,1.416098,1.189761,0.7512136
3915,1.416098,1.189761,0.7512136
3918,1.434359,1.213214,0.7486043
3920,1.434359,1.213214,0.7486043
3922,1.434223,1.213214,0.7483428
3926,1.435042,1.214826,0.7470343
3928,1.435042,1.214826,0.7470343
3930,1.422853,1.199752,0.7478197
3932,1.422853,1.199752,0.7478197
3935,1.418859,1.195176,0.7480813
3937,1.407504,1.183825,0.7444103
3939,1.407504,1.183825,0.7444103
3942,1.397318,1.174865,0.7399282
3944,1.397318,1.174865,0.7399282
3946,1.392408,1.170861,0.7370135
3949,1.392408,1.170861,0.7370135
3951,1.385363,1.166675,0.7306137
3953,1.383101,1.166172,0.7273927
3956,1.383101,1.166172,0.7273927
3958,1.380268,1.166004,0.7228051
3960,1.380268,1.166004,0.7228051
3963,1.379985,1.167681,0.719821
3965,1.379985,1.167681,0.719821
3968,1.379985,1.170861,0.7157319
3971,1.375012,1.167514,0.7116191
3973,1.375012,1.167514,0.7116191
3975,1.373446,1.166675,0.7105184
3978,1.373446,1.166675,0.7105184
3980,1.369451,1.162979,0.7083117
3982,1.368164,1.162138,0.707759
3985,1.368164,1.162138,0.707759
3987,1.361425,1.155383,0.7063754
3989,1.361425,1.155383,0.7063754
3992,1.359411,1.153179,0.7058211
3994,1.359411,1.153179,0.7058211
3996,1.360131,1.151821,0.7091401
3999,1.360994,1.151481,0.711069
4001,1.360994,1.151481,0.711069
4003,1.362,1.153179,0.7113441
4006,1.362,1.153179,0.7113441
4008,1.364297,1.155383,0.711894
4011,1.364297,1.155213,0.7124436
4013,1.364297,1.155213,0.7124436
4016,1.364584,1.155213,0.7127182
4018,1.364584,1.155213,0.7127182
4020,1.370165,1.159441,0.7162784
4023,1.370165,1.159441,0.7162784
4025,1.372163,1.161296,0.7170975
4027,1.380835,1.16969,0.7203645
4030,1.380835,1.16969,0.7203645
4032,1.384091,1.172364,0.7214502
4034,1.384091,1.172364,0.7214502
4037,1.385928,1.174865,0.7219925
4039,1.387057,1.175698,0.7225344
4041,1.387057,1.175698,0.7225344
4044,1.388749,1.177527,0.7228051
4046,1.388749,1.177527,0.7228051
4048,1.39072,1.17952,0.7233464
4051,1.39072,1.17952,0.7233464
4054,1.387762,1.176363,0.7228051
4056,1.383384,1.171863,0.7214502
4059,1.383384,1.171863,0.7214502
4061,1.379985,1.168184,0.7209076
4063,1.379985,1.168184,0.7209076
4066,1.378992,1.167178,0.7206361
4068,1.378992,1.167178,0.7206361
4070,1.379275,1.167514,0.7206361
4073,1.380268,1.168686,0.7203645
4075,1.381119,1.169858,0.7206361
4077,1.381685,1.169523,0.7214502
4080,1.381685,1.169523,0.7214502
4082,1.382393,1.170025,0.7222635
4084,1.383242,1.170025,0.7236168
4087,1.383242,1.170025,0.7236168
4089,1.384091,1.170359,0.7246976
4091,1.384091,1.170359,0.7246976
4094,1.380835,1.165836,0.7255072
4097,1.380835,1.165836,0.7255072
4099,1.376293,1.159441,0.7265852
4101,1.369879,1.150801,0.7276617
4104,1.369879,1.150801,0.7276617
4106,1.366303,1.145688,0.7284679
4108,1.366303,1.145688,0.7284679
4111,1.359123,1.136256,0.7295417
4113,1.353207,1.128479,0.7306137
4115,1.353207,1.128479,0.7306137
4118,1.349732,1.12431,0.7308815
4120,1.349732,1.12431,0.7308815
4122,1.345085,1.117851,0.7308815
4125,1.345085,1.117851,0.7308815
4127,1.342172,1.114871,0.7306137
4129,1.338229,1.110122,0.7303458
4132,1.338229,1.110122,0.7303458
4134,1.336913,1.108535,0.7303458
4136,1.336913,1.108535,0.7303458
4140,1.332074,1.103226,0.7298098
4142,1.332074,1.103226,0.7298098
4144,1.328101,1.099139,0.7284679
4147,1.326627,1.097536,0.7279305
4149,1.326627,1.097536,0.7279305
4151,1.353352,1.122568,0.7388696
4154,1.353352,1.122568,0.7388696
4156,1.376719,1.144321,0.7483428
4158,1.412777,1.178026,0.7631016
4161,1.412777,1.178026,0.7631016
4163,1.403885,1.168519,0.7607903
4165,1.403885,1.168519,0.7607903
4168,1.400954,1.165501,0.7602757
4170,1.400954,1.165501,0.7602757
4172,1.493314,1.270416,0.7679582
4175,1.529055,1.310599,0.7712635
4177,1.529055,1.310599,0.7712635
4179,1.568478,1.347701,0.7860898
4183,1.568478,1.347701,0.7860898
4185,1.591393,1.367449,0.7981939
4187,1.598264,1.372306,0.8035691
4189,1.598264,1.372306,0.8035691
4192,1.612162,1.383384,0.8120472
4194,1.612162,1.383384,0.8120472
4196,1.615194,1.384374,0.8163731
4199,1.618825,1.386633,0.8199606
4201,1.622809,1.389312,0.8230571
4203,1.619429,1.382818,0.8270888
4206,1.619429,1.382818,0.8270888
4208,1.619671,1.381827,0.8287433
4210,1.619671,1.381827,0.8287433
4213,1.618704,1.378708,0.8325126
4215,1.620275,1.378282,0.8360308
4217,1.620275,1.378282,0.8360308
4220,1.621603,1.378566,0.8379012
4222,1.621603,1.378566,0.8379012
4225,1.62546,1.381402,0.8409316
4228,1.62546,1.381402,0.8409316
4230,1.626303,1.381685,0.8418618
4232,1.629909,1.384939,0.8437192
4235,1.629909,1.384939,0.8437192
4237,1.599366,1.356818,0.8306301
4239,1.599366,1.356818,0.8306301
4242,1.554945,1.316261,0.8110828
4244,1.554945,1.316261,0.8110828
4246,1.520714,1.284509,0.7972127
4249,1.470335,1.237804,0.7763211
4251,1.470335,1.237804,0.7763211
4253,1.431081,1.201219,0.7607903
4256,1.431081,1.201219,0.7607903
4258,1.416512,1.187456,0.7551107
4260,1.392267,1.165333,0.7446731
4263,1.392267,1.165333,0.7446731
4265,1.383101,1.14995,0.7372789
4268,1.375297,1.14995,0.7372789
4271,1.366733,1.142267,0.733287
4273,1.366733,1.142267,0.733287
4275,1.359267,1.135911,0.7292733
4277,1.351471,1.129865,0.7241574
4280,1.351471,1.129865,0.7241574
4282,1.347991,1.128132,0.7203645
4284,1.347991,1.128132,0.7203645
4287,1.345521,1.125353,0.7203645
4289,1.341005,1.120823,0.719005
4291,1.341005,1.120823,0.719005
4294,1.342609,1.122393,0.7200928
4296,1.342609,1.122393,0.7200928
4298,1.344211,1.123787,0.7209076
4301,1.344211,1.123787,0.7209076
4303,1.345085,1.123961,0.7219925
4305,1.345812,1.124135,0.7230757
4308,1.345812,1.124135,0.7230757
4311,1.349442,1.127785,0.7246976
4313,1.349442,1.127785,0.7246976
4316,1.354075,1.131769,0.7263159
4318,1.35725,1.134704,0.7279305
4320,1.35725,1.134704,0.7279305
4323,1.358403,1.135911,0.7284679
4325,1.358403,1.135911,0.7284679
4327,1.360994,1.138492,0.729005
4330,1.360994,1.138492,0.729005
4332,1.362431,1.140038,0.7292733
4334,1.36573,1.143294,0.7303458
4337,1.36573,1.143294,0.7303458
4339,1.368736,1.146542,0.7311491
4341,1.368736,1.146542,0.7311491
4344,1.37145,1.149269,0.7319516
4346,1.37145,1.149269,0.7319516
4348,1.375155,1.15267,0.733287
4352,1.376293,1.153688,0.7338206
4354,1.376293,1.153688,0.7338206
4356,1.382676,1.161127,0.7343537
4359,1.382676,1.161127,0.7343537
4361,1.388749,1.167849,0.7354187
4363,1.391986,1.171529,0.7359507
4365,1.391986,1.171529,0.7359507
4368,1.396617,1.177195,0.7359507
4370,1.396617,1.177195,0.7359507
4372,1.399417,1.181177,0.7351527
4375,1.399417,1.181177,0.7351527
4377,1.401513,1.18366,0.7348864
4379,1.404303,1.187291,0.7346201
4382,1.404303,1.187291,0.7346201
4384,1.405138,1.188444,0.7346201
4386,1.405138,1.188444,0.7346201
4389,1.407782,1.191733,0.7340872
4391,1.408755,1.192718,0.7343537
4393,1.408755,1.192718,0.7343537
4397,1.412223,1.196158,0.7359507
4399,1.412223,1.196158,0.7359507
4401,1.414162,1.198447,0.7359507
4404,1.414162,1.198447,0.7359507
4406,1.414854,1.199262,0.7359507
4408,1.419549,1.205122,0.7351527
4411,1.419549,1.205122,0.7351527
4413,1.423128,1.209337,0.7351527
4415,1.423128,1.209337,0.7351527
4418,1.428207,1.216918,0.7327532
4420,1.428207,1.216918,0.7327532
4422,1.431218,1.222533,0.7295417
4425,1.432448,1.224453,0.7284679
4427,1.432448,1.224453,0.7284679
4429,1.439127,1.232894,0.7279305
4432,1.439127,1.232894,0.7279305
4434,1.441436,1.235589,0.7273927
4436,1.448749,1.244112,0.7279305
4440,1.448749,1.244112,0.7279305
4442,1.449289,1.245055,0.7268545
4444,1.449289,1.245055,0.7268545
4447,1.447668,1.243483,0.7263159
4449,1.447668,1.243483,0.7263159
4451,1.445097,1.240962,0.7255072
4453,1.447533,1.243483,0.7260464
4456,1.447533,1.243483,0.7260464
4458,1.450909,1.24694,0.7271236
4460,1.450909,1.24694,0.7271236
4463,1.442929,1.237646,0.7263159
4465,1.439806,1.234321,0.7260464
4467,1.439806,1.234321,0.7260464
4470,1.42807,1.22029,0.7260464
4472,1.42807,1.22029,0.7260464
4474,1.423678,1.21547,0.7260464
4477,1.423678,1.21547,0.7260464
4480,1.414024,1.203498,0.7271236
4482,1.407921,1.195831,0.7279305
4485,1.407921,1.195831,0.7279305
4487,1.404581,1.19124,0.729005
4489,1.404581,1.19124,0.729005
4492,1.399836,1.184651,0.7306137
4494,1.395356,1.178856,0.7308815
4496,1.395356,1.178856,0.7308815
4499,1.393672,1.176696,0.7314168
4501,1.393672,1.176696,0.7314168
4503,1.390439,1.171529,0.733287
4506,1.390439,1.171529,0.733287
4508,1.38903,1.169523,0.7338206
4510,1.389312,1.168854,0.7354187
4513,1.389312,1.168854,0.7354187
4515,1.389312,1.168519,0.7362165
4517,1.389312,1.168519,0.7362165
4520,1.38903,1.168016,0.7364823
4523,1.38903,1.168016,0.7364823
4525,1.38889,1.167178,0.7370135
4528,1.389453,1.167849,0.7370135
4530,1.389453,1.167849,0.7370135
4532,1.390439,1.168519,0.7378095
4535,1.390439,1.168519,0.7378095
4537,1.390016,1.168016,0.7378095
4539,1.388749,1.166843,0.7375443
4541,1.388749,1.166843,0.7375443
4544,1.390579,1.168016,0.7388696
4546,1.390579,1.168016,0.7388696
4548,1.391283,1.168351,0.7396637
4551,1.391283,1.168351,0.7396637
4553,1.392829,1.169523,0.7399282
4555,1.393251,1.170694,0.7396637
4558,1.393251,1.170694,0.7396637
4560,1.39297,1.170694,0.7386047
4562,1.39297,1.170694,0.7386047
4566,1.392127,1.170025,0.7380747
4568,1.396898,1.175864,0.7378095
4570,1.396898,1.175864,0.7378095
4573,1.401373,1.181177,0.7380747
4575,1.401373,1.181177,0.7380747
4577,1.405556,1.186797,0.7372789
4580,1.405556,1.186797,0.7372789
4582,1.40653,1.188938,0.7351527
4584,1.412223,1.196158,0.7346201
4587,1.412223,1.196158,0.7346201
4589,1.420238,1.205934,0.7340872
4591,1.420238,1.205934,0.7340872
4594,1.426836,1.214182,0.7335538
4596,1.436541,1.22589,0.7327532
4598,1.436541,1.22589,0.7327532
4601,1.440078,1.230193,0.7327532
4603,1.440078,1.230193,0.7327532
4605,1.447533,1.239226,0.7319516
4609,1.447533,1.239226,0.7319516
4611,1.451987,1.245055,0.7308815
4613,1.453604,1.247568,0.7303458
4616,1.453604,1.247568,0.7303458
4618,1.456159,1.251014,0.7292733
4620,1.456159,1.251014,0.7292733
4622,1.457637,1.253514,0.7284679
4625,1.457637,1.253514,0.7284679
4627,1.458308,1.25445,0.7276617
4629,1.460721,1.257566,0.7271236
4632,1.460721,1.257566,0.7271236
4634,1.461525,1.25881,0.7268545
4636,1.461525,1.25881,0.7268545
4639,1.465536,1.263001,0.7276617
4641,1.467138,1.264704,0.7279305
4643,1.467138,1.264704,0.7279305
4646,1.466871,1.264085,0.7281993
4648,1.466871,1.264085,0.7281993
4651,1.466337,1.263156,0.7284679
4654,1.466337,1.263156,0.7284679
4656,1.465803,1.262691,0.7284679
4658,1.465269,1.262226,0.7287365
4661,1.465269,1.262226,0.7287365
4663,1.465269,1.262226,0.7287365
4665,1.465269,1.262226,0.7287365
4668,1.465269,1.262226,0.7287365
4670,1.46607,1.262536,0.7295417
4672,1.46607,1.262536,0.7295417
4675,1.461659,1.257722,0.729005
4677,1.461659,1.257722,0.729005
4679,1.457502,1.253514,0.7284679
4682,1.457502,1.253514,0.7284679
4684,1.451583,1.247254,0.7273927
4686,1.451178,1.245684,0.7287365
4689,1.451178,1.245684,0.7287365
4691,1.450909,1.245055,0.729005
4694,1.450909,1.245055,0.729005
4697,1.451583,1.244584,0.7311491
4699,1.451583,1.244584,0.7311491
4701,1.451852,1.244584,0.7319516
4704,1.456025,1.248195,0.7340872
4706,1.456025,1.248195,0.7340872
4708,1.45871,1.250231,0.7354187
4710,1.45871,1.250231,0.7354187
4713,1.460587,1.251483,0.7370135
4715,1.463131,1.253201,0.7391344
4717,1.463131,1.253201,0.7391344
4720,1.459381,1.249448,0.7380747
4722,1.459381,1.249448,0.7380747
4724,1.453604,1.24364,0.7367479
4727,1.453604,1.24364,0.7367479
4729,1.454277,1.244112,0.7370135
4731,1.454411,1.244269,0.7370135
4734,1.454411,1.244269,0.7370135
4737,1.458308,1.247411,0.7393991
4739,1.458308,1.247411,0.7393991
4742,1.460855,1.249448,0.7409853
4744,1.462596,1.251326,0.7415132
4746,1.462596,1.251326,0.7415132
4749,1.463933,1.252733,0.741777
4751,1.463933,1.252733,0.741777
4753,1.45871,1.247097,0.7404569
4756,1.45871,1.247097,0.7404569
4758,1.449559,1.237804,0.7388696
4760,1.445097,1.23337,0.7375443
4763,1.445097,1.23337,0.7375443
4765,1.438583,1.227007,0.7354187
4767,1.438583,1.227007,0.7354187
4770,1.433677,1.222533,0.7335538
4772,1.431902,1.220611,0.7330202
4774,1.431902,1.220611,0.7330202
4777,1.42944,1.218365,0.7322189
4780,1.42944,1.218365,0.7322189
4782,1.427796,1.216597,0.7316842
4785,1.427796,1.216597,0.7316842
4787,1.427385,1.216436,0.7308815
4789,1.426699,1.216757,0.7298098
4792,1.426699,1.216757,0.7298098
4794,1.43395,1.224453,0.7308815
4796,1.43395,1.224453,0.7308815
4798,1.444826,1.236381,0.7322189
4801,1.444826,1.236381,0.7322189
4803,1.450639,1.242696,0.7327532
4805,1.459649,1.252264,0.7340872
4808,1.459649,1.252264,0.7340872
4810,1.464868,1.257722,0.7356848
4812,1.464868,1.257722,0.7356848
4815,1.473128,1.265632,0.7375443
4817,1.47419,1.267023,0.7383398
4819,1.47419,1.267023,0.7383398
4823,1.47671,1.269183,0.7393991
4825,1.47671,1.269183,0.7393991
4827,1.479623,1.272109,0.7399282
4830,1.479623,1.272109,0.7399282
4832,1.481209,1.2738,0.7401926
4834,1.478432,1.271494,0.7388696
4837,1.478432,1.271494,0.7388696
4839,1.475252,1.268566,0.7372789
4841,1.475252,1.268566,0.7372789
4844,1.472862,1.266405,0.7362165
4846,1.47724,1.271648,0.7356848
4848,1.47724,1.271648,0.7356848
4851,1.478961,1.273954,0.7354187
4853,1.478961,1.273954,0.7354187
4855,1.485035,1.280694,0.7354187
4858,1.485035,1.280694,0.7354187
4860,1.489115,1.285423,0.7359507
4862,1.49056,1.286944,0.7362165
4866,1.49056,1.286944,0.7362165
4868,1.492003,1.288615,0.7367479
4870,1.492003,1.288615,0.7367479
4873,1.49279,1.289071,0.7367479
4875,1.49279,1.289071,0.7367479
4877,1.493183,1.289526,0.7367479
4880,1.482265,1.278401,0.7343537
4882,1.482265,1.278401,0.7343537
4884,1.478564,1.274722,0.7338206
4886,1.478564,1.274722,0.7338206
4889,1.480284,1.276256,0.7348864
4891,1.478564,1.274107,0.7343537
4893,1.478564,1.274107,0.7343537
4896,1.47671,1.272417,0.7335538
4898,1.47671,1.272417,0.7335538
4900,1.476975,1.273339,0.7324861
4903,1.476975,1.273339,0.7324861
4905,1.479755,1.277022,0.7319516
4908,1.480945,1.278401,0.7319516
4911,1.480945,1.278401,0.7319516
4913,1.476445,1.274261,0.7303458
4915,1.476445,1.274261,0.7303458
4918,1.474986,1.272878,0.7298098
4920,1.467004,1.265013,0.7271236
4922,1.467004,1.265013,0.7271236
4925,1.4642,1.262226,0.7263159
4927,1.4642,1.262226,0.7263159
4929,1.458174,1.255542,0.7257769
4932,1.458174,1.255542,0.7257769
4934,1.456025,1.253358,0.7255072
4936,1.448344,1.244269,0.7255072
4939,1.448344,1.244269,0.7255072
4941,1.445639,1.24112,0.7252374
4943,1.445639,1.24112,0.7252374
4946,1.447803,1.242538,0.7273927
4948,1.448749,1.24301,0.7281993
4951,1.448749,1.24301,0.7281993
4954,1.44591,1.240016,0.7281993
4956,1.44591,1.240016,0.7281993
4958,1.444285,1.238279,0.7279305
4961,1.444285,1.238279,0.7279305
4963,1.443065,1.236856,0.7276617
4965,1.441572,1.235272,0.7276617
4968,1.441572,1.235272,0.7276617
4970,1.441301,1.234797,0.7279305
4972,1.441301,1.234797,0.7279305
4974,1.440893,1.234004,0.7281993
4977,1.440893,1.234004,0.7281993
4979,1.440078,1.233211,0.7276617
4981,1.438855,1.232259,0.7273927
4984,1.438855,1.232259,0.7273927
4986,1.437494,1.231147,0.7268545
4988,1.437494,1.231147,0.7268545
4992,1.437222,1.230511,0.7265852
4994,1.447668,1.241435,0.729005
4996,1.447668,1.241435,0.729005
4999,1.451313,1.245527,0.7295417
5001,1.451313,1.245527,0.7295417
5003,1.452257,1.246155,0.7300779
5006,1.452257,1.246155,0.7300779
5008,1.452661,1.246469,0.7300779
5010,1.462328,1.256632,0.7319516
5013,1.462328,1.256632,0.7319516
5015,1.465803,1.260209,0.7324861
5017,1.465803,1.260209,0.7324861
5020,1.465803,1.260053,0.7327532
5022,1.465803,1.260209,0.7330202
5024,1.465803,1.260209,0.7330202
5027,1.463131,1.257722,0.7322189
5029,1.463131,1.257722,0.7322189
5031,1.460989,1.255697,0.7311491
5035,1.460989,1.255697,0.7311491
5037,1.457234,1.252108,0.7295417
5039,1.455487,1.250701,0.7287365
5042,1.455487,1.250701,0.7287365
5044,1.453604,1.249135,0.7276617
5046,1.453604,1.249135,0.7276617
5049,1.45293,1.248665,0.7265852
5051,1.45293,1.249135,0.7260464
5053,1.45293,1.249135,0.7260464
5056,1.45293,1.249605,0.7252374
5058,1.45293,1.249605,0.7252374
5060,1.458845,1.255697,0.7263159
5062,1.458845,1.255697,0.7263159
5065,1.467271,1.264704,0.7279305
5067,1.466204,1.263775,0.7276617
5069,1.466204,1.263775,0.7276617
5072,1.464868,1.262226,0.7276617
5074,1.464868,1.262226,0.7276617
5076,1.462863,1.260209,0.7268545
5080,1.462863,1.260209,0.7268545
5082,1.460319,1.257566,0.7263159
5084,1.463799,1.26114,0.7268545
5087,1.463799,1.26114,0.7268545
5089,1.469137,1.26625,0.7287365
5091,1.469137,1.26625,0.7287365
5094,1.470735,1.268103,0.7292733
5096,1.465937,1.262536,0.729005
5098,1.465937,1.262536,0.729005
5101,1.462328,1.259121,0.7276617
5103,1.462328,1.259121,0.7276617
5105,1.461123,1.258033,0.7268545
5108,1.461123,1.258033,0.7268545
5110,1.458979,1.256476,0.7255072
5112,1.458308,1.255853,0.7252374
5115,1.458308,1.255853,0.7252374
5117,1.457368,1.255542,0.7241574
5120,1.457368,1.255542,0.7241574
5123,1.457234,1.255697,0.7236168
5125,1.45804,1.256943,0.7233464
5127,1.45804,1.256943,0.7233464
5130,1.459381,1.258188,0.7241574
5132,1.459381,1.258188,0.7241574
5134,1.460051,1.25881,0.7244276
5137,1.460051,1.25881,0.7244276
5139,1.457637,1.256009,0.7241574
5141,1.461793,1.259743,0.7260464
5144,1.461793,1.259743,0.7260464
5146,1.465803,1.26362,0.7276617
5148,1.465803,1.26362,0.7276617
5150,1.469803,1.267177,0.7292733
5153,1.469803,1.267177,0.7292733
5155,1.470469,1.267795,0.7295417
5157,1.4714,1.26872,0.7298098
5160,1.4714,1.26872,0.7298098
5163,1.46967,1.266559,0.7303458
5165,1.46967,1.266559,0.7303458
5168,1.467271,1.263156,0.7308815
5170,1.463799,1.259121,0.7308815
5172,1.463799,1.259121,0.7308815
5175,1.462328,1.257877,0.7306137
5177,1.462328,1.257877,0.7306137
5179,1.459515,1.25445,0.7306137
5182,1.459515,1.25445,0.7306137
5184,1.45871,1.253201,0.7308815
5186,1.453873,1.247881,0.7300779
5189,1.453873,1.247881,0.7300779
5191,1.451987,1.246469,0.7295417
5193,1.451987,1.246469,0.7295417
5196,1.451987,1.246312,0.7292733
5198,1.451987,1.246783,0.729005
5200,1.451987,1.246783,0.729005
5203,1.451448,1.246312,0.729005
5206,1.451178,1.245841,0.7287365
5208,1.451043,1.245527,0.7287365
5211,1.451043,1.245527,0.7287365
5213,1.450639,1.244741,0.7298098
5215,1.450369,1.244426,0.7298098
5218,1.450369,1.244426,0.7298098
5220,1.452257,1.245841,0.7311491
5222,1.452257,1.245841,0.7311491
5225,1.452796,1.246155,0.7314168
5227,1.452526,1.246155,0.7308815
5229,1.452526,1.246155,0.7308815
5231,1.452392,1.245998,0.7308815
5234,1.452392,1.245998,0.7308815
5236,1.453738,1.247724,0.7308815
5238,1.453738,1.247724,0.7308815
5241,1.455622,1.249918,0.7306137
5243,1.456294,1.250701,0.7306137
5245,1.456294,1.250701,0.7306137
5249,1.456965,1.251795,0.7306137
5251,1.456965,1.251795,0.7306137
5253,1.455218,1.248978,0.7311491
5256,1.455218,1.248978,0.7311491
5258,1.454546,1.248195,0.7311491
5260,1.452392,1.245841,0.7308815
5263,1.452392,1.245841,0.7308815
5265,1.451583,1.245212,0.7306137
5267,1.451583,1.245212,0.7306137
5270,1.450909,1.244584,0.7303458
5272,1.451043,1.244426,0.7303458
5274,1.451043,1.244426,0.7303458
5277,1.452257,1.245527,0.7311491
5279,1.452257,1.245527,0.7311491
5281,1.453873,1.24694,0.7322189
5284,1.453873,1.24694,0.7322189
5286,1.479358,1.279319,0.7273927
5288,1.518267,1.328543,0.7200928
5292,1.518267,1.328543,0.7200928
5294,1.523671,1.333982,0.721179
5296,1.523671,1.333982,0.721179
5299,1.532762,1.343338,0.7230757
5301,1.523028,1.331927,0.7236168
5303,1.523028,1.331927,0.7236168
5306,1.509477,1.315666,0.7246976
5308,1.509477,1.315666,0.7246976
5310,1.501287,1.306112,0.7249676
5313,1.501287,1.306112,0.7249676
5315,1.48964,1.292406,0.7252374
5317,1.485562,1.287704,0.7252374
5319,1.485562,1.287704,0.7252374
5322,1.478961,1.280083,0.7252374
5324,1.478961,1.280083,0.7252374
5326,1.476578,1.277482,0.7249676
5329,1.476578,1.277482,0.7249676
5331,1.53646,1.348427,0.721179
5334,1.559343,1.375582,0.719821
5337,1.559343,1.375582,0.719821
5339,1.567604,1.383808,0.7219925
5341,1.567604,1.383808,0.7219925
5344,1.571345,1.387621,0.7225344
5346,1.562979,1.376577,0.7255072
5348,1.562979,1.376577,0.7255072
5351,1.560598,1.373019,0.7268545
5353,1.560598,1.373019,0.7268545
5355,1.553182,1.362431,0.7303458
5358,1.553182,1.362431,0.7303458
5360,1.540658,1.347701,0.7314168
5362,1.532635,1.338522,0.7311491
5365,1.532635,1.338522,0.7311491
5367,1.544717,1.354653,0.7268545
5369,1.544717,1.354653,0.7268545
5372,1.573212,1.390298,0.7214502
5374,1.584491,1.404303,0.7192771
5377,1.584491,1.404303,0.7192771
5380,1.584615,1.402071,0.7236168
5382,1.584615,1.402071,0.7236168
5384,1.578552,1.392829,0.7279305
5387,1.578552,1.392829,0.7279305
5389,1.573709,1.386069,0.7298098
5391,1.570224,1.367735,0.7322189
5394,1.558716,1.367735,0.7322189
5396,1.550029,1.357394,0.7330202
5398,1.550029,1.357394,0.7330202
5401,1.531102,1.335448,0.733287
5403,1.521485,1.324708,0.733287
5405,1.521485,1.324708,0.733287
5407,1.508828,1.310002,0.7330202
5410,1.508828,1.310002,0.7330202
5412,1.508569,1.308806,0.7346201
5414,1.508698,1.308208,0.7356848
5417,1.509088,1.307909,0.7370135
5420,1.513231,1.310898,0.7399282
5422,1.513231,1.310898,0.7399282
5425,1.514912,1.31239,0.7412493
5427,1.514912,1.31239,0.7412493
5429,1.521485,1.318489,0.7436213
5432,1.521485,1.318489,0.7436213
5434,1.524184,1.321158,0.7444103
5436,1.517751,1.314476,0.7433581
5439,1.517751,1.314476,0.7433581
5441,1.515945,1.312539,0.742568
5443,1.515945,1.312539,0.742568
5446,1.519812,1.316855,0.7433581
5448,1.523028,1.319973,0.7438844
5450,1.523028,1.319973,0.7438844
5453,1.5211,1.318044,0.7436213
5455,1.5211,1.318044,0.7436213
5457,1.51904,1.315815,0.7433581
5460,1.51904,1.315815,0.7433581
5463,1.514912,1.311346,0.7428315
5465,1.509088,1.305063,0.7420408
5468,1.509088,1.305063,0.7420408
5470,1.553308,1.361569,0.7324861
5472,1.553308,1.361569,0.7324861
5475,1.570349,1.383242,0.729005
5477,1.560723,1.372733,0.7281993
5479,1.560723,1.372733,0.7281993
5482,1.557837,1.369451,0.7279305
5484,1.557837,1.369451,0.7279305
5486,1.545224,1.354508,0.7287365
5489,1.545224,1.354508,0.7287365
5491,1.530079,1.336327,0.7300779
5493,1.558716,1.369594,0.7295417
5495,1.558716,1.369594,0.7295417
5498,1.603276,1.420926,0.7284679
5500,1.603276,1.420926,0.7284679
5502,1.598632,1.4125,0.7340872
5506,1.597774,1.410421,0.7362165
5508,1.597774,1.410421,0.7362165
5510,1.579172,1.386069,0.7423044
5513,1.579172,1.386069,0.7423044
5515,1.572963,1.377572,0.7444103
5517,1.572963,1.377572,0.7444103
5520,1.558214,1.358691,0.7478197
5522,1.550407,1.349152,0.7488656
5524,1.550407,1.349152,0.7488656
5527,1.537861,1.333982,0.7501709
5529,1.537861,1.333982,0.7501709
5531,1.528927,1.32323,0.7506924
5534,1.528927,1.32323,0.7506924
5536,1.552426,1.351905,0.7478197
5538,1.588685,1.396057,0.7438844
5541,1.588685,1.396057,0.7438844
5543,1.630869,1.446992,0.7388696
5545,1.630869,1.446992,0.7388696
5549,1.647583,1.467004,0.7367479
5551,1.671989,1.497633,0.7308815
5553,1.671989,1.497633,0.7308815
5556,1.680861,1.509347,0.7273927
5558,1.680861,1.509347,0.7273927
5560,1.692926,1.525724,0.7219925
5563,1.692926,1.525724,0.7219925
5565,1.696967,1.531357,0.719821
5567,1.680861,1.513102,0.7206361
5570,1.680861,1.513102,0.7206361
5572,1.664834,1.493969,0.7230757
5574,1.664834,1.493969,0.7230757
5577,1.652445,1.479094,0.7246976
5579,1.652445,1.479094,0.7246976
5581,1.652445,1.479094,0.7246976
5583,1.634105,1.457502,0.7263159
5586,1.634105,1.457502,0.7263159
5588,1.61955,1.440078,0.7281993
5591,1.61955,1.440078,0.7281993
5594,1.589054,1.403327,0.7319516
5596,1.573834,1.384798,0.7335538
5598,1.573834,1.384798,0.7335538
5601,1.574207,1.385786,0.7322189
5603,1.574207,1.385786,0.7322189
5605,1.584738,1.399137,0.7298098
5608,1.584738,1.399137,0.7298098
5610,1.600833,1.419273,0.7260464
5612,1.578428,1.392267,0.7292733
5615,1.578428,1.392267,0.7292733
5617,1.570349,1.382252,0.7303458
5619,1.570349,1.382252,0.7303458
5622,1.595814,1.413747,0.7257769
5624,1.605472,1.425601,0.7241574
5626,1.605472,1.425601,0.7241574
5629,1.633267,1.460185,0.7184606
5632,1.633267,1.460185,0.7184606
5634,1.627385,1.453738,0.717643
5637,1.627385,1.453738,0.717643
5639,1.614225,1.437902,0.719005
5641,1.613133,1.437086,0.7184606
5644,1.613133,1.437086,0.7184606
5646,1.621241,1.446857,0.7173703
5648,1.621241,1.446857,0.7173703
5651,1.633866,1.462194,0.7151849
5653,1.64687,1.477505,0.7135413
5655,1.64687,1.477505,0.7135413
5658,1.667301,1.501547,0.7113441
5660,1.667301,1.501547,0.7113441
5662,1.607056,1.42711,0.7244276
5665,1.607056,1.42711,0.7244276
5667,1.585356,1.399557,0.7292733
5669,1.522771,1.319083,0.7441474
5671,1.522771,1.319083,0.7441474
5675,1.499461,1.288767,0.749649
5677,1.499461,1.288767,0.749649
5679,1.461391,1.237804,0.7595032
5682,1.446721,1.217883,0.7633579
5684,1.446721,1.217883,0.7633579
5686,1.436404,1.204473,0.7654059
5689,1.436404,1.204473,0.7654059
5691,1.427522,1.192554,0.7671934
5693,1.427522,1.192554,0.7671934
5696,1.436268,1.204798,0.7643827
5698,1.448209,1.221252,0.7610474
5700,1.448209,1.221252,0.7610474
5703,1.457234,1.232259,0.7607903
5705,1.457234,1.232259,0.7607903
5707,1.459917,1.235272,0.7610474
5710,1.459917,1.235272,0.7610474
5712,1.465403,1.240962,0.762332
5714,1.467004,1.242538,0.7628451
5718,1.467004,1.242538,0.7628451
5720,1.491478,1.273493,0.7600183
5722,1.491478,1.273493,0.7600183
5725,1.526878,1.318044,0.7545922
5727,1.528543,1.319231,0.7558876
5729,1.528543,1.319231,0.7558876
5732,1.531102,1.320714,0.7582139
5734,1.531102,1.320714,0.7582139
5736,1.542181,1.335009,0.7561465
5739,1.542181,1.335009,0.7561465
5741,1.558967,1.356385,0.7525149
5743,1.551795,1.346539,0.7553698
5746,1.551795,1.346539,0.7553698
5748,1.540785,1.33178,0.758472
5750,1.540785,1.33178,0.758472
5753,1.489246,1.267331,0.7654059
5755,1.470335,1.243325,0.7682129
5757,1.470335,1.243325,0.7682129
5760,1.435042,1.196976,0.7740492
5763,1.435042,1.196976,0.7740492
5765,1.418583,1.175198,0.7770769
5767,1.418583,1.175198,0.7770769
5770,1.404163,1.156399,0.7790887
5772,1.401932,1.154366,0.7780834
5774,1.401932,1.154366,0.7780834
5777,1.404581,1.158427,0.7770769
5779,1.404581,1.158427,0.7770769
5781,1.407226,1.162643,0.7755645
5784,1.407226,1.162643,0.7755645
5786,1.386492,1.143979,0.7661725
5788,1.368593,1.127264,0.758472
5791,1.368593,1.127264,0.758472
5793,1.381544,1.150971,0.7465102
5795,1.381544,1.150971,0.7465102
5798,1.404721,1.181674,0.741777
5800,1.430124,1.21402,0.7383398
5803,1.430124,1.21402,0.7383398
5806,1.439263,1.224453,0.7386047
5808,1.439263,1.224453,0.7386047
5810,1.443472,1.227485,0.741777
5813,1.443472,1.227485,0.741777
5815,1.449019,1.231465,0.7462481
5817,1.448884,1.229397,0.7488656
5820,1.448884,1.229397,0.7488656
5822,1.448073,1.226369,0.7527748
5824,1.448073,1.226369,0.7527748
5827,1.449964,1.22605,0.7571809
5829,1.451718,1.226369,0.7592455
5831,1.451718,1.226369,0.7592455
5834,1.481209,1.260985,0.7600183
5836,1.481209,1.260985,0.7600183
5838,1.504672,1.289071,0.7589878
5840,1.504672,1.289071,0.7589878
5843,1.524056,1.311942,0.7589878
5846,1.524184,1.311942,0.7597608
5848,1.524441,1.312092,0.7600183
5851,1.525083,1.312688,0.760533
5853,1.525083,1.312688,0.760533
5855,1.51659,1.301309,0.7625886
5858,1.513749,1.297846,0.7633579
5860,1.513749,1.297846,0.7633579
5862,1.503111,1.284052,0.7654059
5865,1.503111,1.284052,0.7654059
5867,1.499722,1.279625,0.7661725
5869,1.499722,1.279625,0.7661725
5872,1.483057,1.260674,0.7654059
5874,1.467404,1.242853,0.7641266
5876,1.467404,1.242853,0.7641266
5879,1.459649,1.233846,0.7636142
5881,1.459649,1.233846,0.7636142
5883,1.449019,1.221733,0.7628451
5886,1.449019,1.221733,0.7628451
5889,1.426013,1.211439,0.7364823
5891,1.417617,1.208204,0.7265852
5894,1.417617,1.208204,0.7265852
5896,1.460185,1.265477,0.7135413
5898,1.460185,1.265477,0.7135413
5901,1.476578,1.287552,0.708588
5903,1.490691,1.299202,0.7162784
5905,1.490691,1.299202,0.7162784
5908,1.496718,1.304313,0.7184606
5910,1.488983,1.293617,0.7214502
5912,1.483189,1.285423,0.7236168
5915,1.483189,1.285423,0.7236168
5917,1.475384,1.274568,0.7263159
5919,1.470735,1.268566,0.7271236
5922,1.470735,1.268566,0.7271236
5924,1.464735,1.260985,0.7281993
5926,1.464735,1.260985,0.7281993
5928,1.457368,1.250857,0.7306137
5932,1.455084,1.247568,0.7314168
5934,1.455084,1.247568,0.7314168
5936,1.451313,1.243168,0.7316842
5939,1.448614,1.240173,0.7314168
5941,1.446586,1.237646,0.7316842
5943,1.446586,1.237646,0.7316842
5946,1.450234,1.243168,0.7292733
5948,1.451718,1.24537,0.7281993
5950,1.451718,1.24537,0.7281993
5953,1.464601,1.261295,0.7268545
5955,1.464601,1.261295,0.7268545
5957,1.473526,1.272417,0.7263159
5960,1.484772,1.286336,0.7241574
5962,1.484772,1.286336,0.7241574
5964,1.501938,1.308059,0.721179
5967,1.501938,1.308059,0.721179
5969,1.53289,1.346393,0.7160051
5971,1.53289,1.346393,0.7160051
5975,1.580782,1.405138,0.7074825
5977,1.580782,1.405138,0.7074825
5979,1.580782,1.405138,0.7074825
5982,1.580782,1.405138,0.7074825
5984,1.580782,1.405138,0.7074825
5986,1.638172,1.471799,0.7033216
5989,1.638172,1.471799,0.7033216
5991,1.688064,1.529439,0.6994157
5993,1.730766,1.5788,0.694925
5996,1.730766,1.5788,0.694925
5998,1.767576,1.620999,0.6912548
6000,1.767576,1.620999,0.6912548
6003,1.82842,1.690149,0.6852845
6005,1.853613,1.718511,0.6827098
6007,1.853613,1.718511,0.6827098
6010,1.892689,1.763141,0.6772422
6012,1.892689,1.763141,0.6772422
6014,1.908238,1.781142,0.6746368
6017,1.908238,1.781142,0.6746368
6020,1.922441,1.79733,0.6723125
6022,1.941586,1.819729,0.6679325
6024,1.941586,1.819729,0.6679325
6027,1.948629,1.827563,0.667053
6029,1.948629,1.827563,0.667053
6031,1.96264,1.843556,0.6649964
6034,1.965131,1.846208,0.6649964
6036,1.965131,1.846208,0.6649964
6038,1.972189,1.85393,0.6641131
6041,1.972189,1.85393,0.6641131
6043,1.976551,1.858885,0.6638185
6045,2.066586,1.958447,0.6543178
6048,2.142471,2.04191,0.646193
6050,2.207087,2.11174,0.6413296
6052,2.207087,2.11174,0.6413296
6055,2.209569,2.11387,0.6431577
6057,2.209569,2.11387,0.6431577
6060,2.191871,2.092841,0.6498165
6063,2.191871,2.092841,0.6498165
6065,2.175919,2.074526,0.6540186
6067,2.147763,2.041623,0.6626383
6070,2.147763,2.041623,0.6626383
6072,2.135609,2.027096,0.6667597
6074,2.135609,2.027096,0.6667597
6077,2.199537,2.096112,0.6632286
6079,2.261226,2.16338,0.6573014
6081,2.261226,2.16338,0.6573014
6084,2.302058,2.206732,0.6564078
6086,2.302058,2.206732,0.6564078
6088,2.287901,2.189905,0.6617518
6091,2.287901,2.189905,0.6617518
6093,2.285247,2.186507,0.6635236
6095,2.236597,2.130746,0.675796
6098,2.236597,2.130746,0.675796
6100,2.220613,2.112388,0.6798376
6103,2.220613,2.112388,0.6798376
6105,2.176818,2.06213,0.690405
6108,2.162384,2.045262,0.6943616
6110,2.162384,2.045262,0.6943616
6112,2.122094,1.999097,0.7024865
6115,2.122094,1.999097,0.7024865
6117,2.096392,1.969409,0.7083117
6119,2.096392,1.969409,0.7083117
6122,2.08741,1.958547,0.711069
6124,2.07462,1.943299,0.7151849
6126,2.07462,1.943299,0.7151849
6129,2.070276,1.937752,0.7168246
6131,2.070276,1.937752,0.7168246
6133,2.073016,1.939569,0.719005
6136,2.078202,1.944809,0.719821
6138,2.078202,1.944809,0.719821
6140,2.087129,1.953645,0.7214502
6144,2.087129,1.953645,0.7214502
6146,2.095458,1.962041,0.7222635
6148,2.095458,1.962041,0.7222635
6151,2.108679,1.975561,0.7236168
6153,2.118679,1.986034,0.7241574
6155,2.118679,1.986034,0.7241574
6158,2.134234,2.002227,0.7246976
6160,2.134234,2.002227,0.7246976
6162,2.142928,2.011881,0.7238871
6165,2.142928,2.011881,0.7238871
6167,2.156493,2.026806,0.7225344
6169,2.177627,2.050232,0.7192771
6172,2.177627,2.050232,0.7192771
6174,2.185969,2.059471,0.7181882
6176,2.185969,2.059471,0.7181882
6179,2.20824,2.084502,0.7149112
6181,2.21682,2.094057,0.7132671
6183,2.21682,2.094057,0.7132671
6187,2.242016,2.124122,0.7024865
6189,2.242016,2.124122,0.7024865
6191,2.252206,2.136158,0.6988559
6193,2.252206,2.136158,0.6988559
6196,2.275291,2.163832,0.6878495
6198,2.284648,2.175019,0.6835691
6200,2.284648,2.175019,0.6835691
6203,2.296269,2.188922,0.6781085
6205,2.296269,2.188922,0.6781085
6207,2.314945,2.211251,0.6691033
6210,2.32212,2.220877,0.6617518
6212,2.32212,2.220877,0.6617518
6214,2.334645,2.237384,0.6504185
6217,2.334645,2.237384,0.6504185
6219,2.353848,2.264081,0.6268256
6221,2.353848,2.264081,0.6268256
6224,2.361735,2.274775,0.6180231
6226,2.363971,2.282591,0.598071
6228,2.363971,2.282591,0.598071
6232,2.360325,2.281733,0.587175
6234,2.360325,2.281733,0.587175
6236,2.35077,2.27787,0.5640592
6239,2.345268,2.275377,0.5517841
6241,2.345268,2.275377,0.5517841
6243,2.340172,2.276323,0.5263757
6246,2.340172,2.276323,0.5263757
6248,2.339503,2.281304,0.5028
6250,2.339503,2.281304,0.5028
6253,2.334142,2.279588,0.4861804
6255,2.327425,2.278471,0.4592754
6257,2.327425,2.278471,0.4592754
6260,2.326079,2.280875,0.4414621
6262,2.326079,2.280875,0.4414621
6264,2.325237,2.28559,0.4125943
6267,2.325237,2.28559,0.4125943
6269,2.470451,2.430916,0.4270431
6272,2.525535,2.48601,0.4311472
6275,2.525535,2.48601,0.4311472
6277,2.641751,2.602335,0.4410186
6279,2.641751,2.602335,0.4410186
6281,2.701391,2.662049,0.4463111
6284,2.804771,2.76612,0.4511079
6286,2.804771,2.76612,0.4511079
6288,2.849844,2.811742,0.4515415
6291,2.849844,2.811742,0.4515415
6293,2.92456,2.887646,0.450674
6295,2.92456,2.887646,0.450674
6298,2.956514,2.92101,0.4449939
6300,2.992644,2.960088,0.4288719
6302,2.992644,2.960088,0.4288719
6305,3.001397,2.970452,0.4191812
6307,3.001397,2.970452,0.4191812
6309,2.904814,2.880656,0.365305
6312,2.751859,2.735522,0.2954137
6315,2.751859,2.735522,0.2954137
6317,2.697911,2.684455,0.2676108
6320,2.697911,2.684455,0.2676108
6322,2.59955,2.589819,0.2281412
6324,2.59955,2.589819,0.2281412
6327,2.455032,2.450563,0.1619255
6329,2.322373,2.321615,0.1027921
6331,2.322373,2.321615,0.1027921
6334,2.269002,2.269261,0.07912937
6336,2.269002,2.269261,0.07912937
6338,2.187849,2.189458,0.03956468
6341,2.187849,2.189458,0.03956468
6343,2.156493,2.15867,0.01978234
6345,2.131665,2.13405,0
6348,2.131665,2.13405,0
6350,2.095365,2.097792,0
6352,2.095365,2.097792,0
6355,2.082059,2.084408,0
6358,2.059091,2.061465,-0.02797646
6360,2.059091,2.061465,-0.02797646
6363,2.16826,2.170064,0
6365,2.256981,2.258194,0.02797646
6367,2.329442,2.33003,0.04845664
6369,2.329442,2.33003,0.04845664
6372,2.537288,2.534895,0.1101434
6374,2.615914,2.612245,0.1356209
6376,2.615914,2.612245,0.1356209
6379,2.773752,2.766615,0.1897456
6381,2.773752,2.766615,0.1897456
6383,2.834347,2.82577,0.2093567
6386,2.940114,2.928306,0.249446
6388,2.940114,2.928306,0.249446
6390,3.015062,3.00081,0.2783625
6393,3.015062,3.00081,0.2783625
6395,3.043625,3.028343,0.2900664
6397,3.043625,3.028343,0.2900664
6401,3.093704,3.076826,0.3064671
6403,3.111057,3.093514,0.3140353
6405,3.111057,3.093514,0.3140353
6408,3.143733,3.125058,0.3262592
6410,3.143733,3.125058,0.3262592
6412,3.153184,3.133941,0.3316129
6415,3.17484,3.154798,0.3403488
6417,3.17484,3.154798,0.3403488
6419,3.183646,3.162669,0.3477423
6422,3.183646,3.162669,0.3477423
6424,3.189728,3.168544,0.3511023
6426,3.189728,3.168544,0.3511023
6429,3.193531,3.171385,0.3593647
6431,3.197697,3.175272,0.3615361
6433,3.197697,3.175272,0.3615361
6436,3.29402,3.272913,0.3577275
6438,3.29402,3.272913,0.3577275
6440,3.438434,3.419649,0.3477423
6444,3.438434,3.419649,0.3477423
6446,3.467635,3.449293,0.3466151
6448,3.519754,3.502131,0.3449174
6450,3.519754,3.502131,0.3449174
6453,3.529086,3.511288,0.3466151
6455,3.529086,3.511288,0.3466151
6457,3.552532,3.53463,0.3505445
6460,3.521755,3.502746,0.3588198
6462,3.521755,3.502746,0.3588198
6464,3.48324,3.462437,0.3711503
6467,3.48324,3.462437,0.3711503
6469,3.487116,3.465432,0.3794918
6471,3.487116,3.465432,0.3794918
6474,3.491661,3.469611,0.382573
6476,3.506545,3.483802,0.3896677
6478,3.506545,3.483802,0.3896677
6481,3.516526,3.493455,0.393167
6483,3.516526,3.493455,0.393167
6486,3.505931,3.481103,0.4068635
6489,3.479978,3.452754,0.4228991
6491,3.479978,3.452754,0.4228991
6493,3.492951,3.464754,0.4311472
6496,3.492951,3.464754,0.4311472
6498,3.517027,3.487285,0.4445539
6500,3.517027,3.487285,0.4445539
6503,3.532081,3.501628,0.4515415
6505,3.55969,3.527977,0.4626713
6507,3.55969,3.527977,0.4626713
6510,3.4948,3.462663,0.4626713
6512,3.4948,3.462663,0.4626713
6514,3.4948,3.462663,0.4626713
6517,3.4948,3.462663,0.4626713
6519,3.4948,3.462663,0.4626713
6521,3.392114,3.360977,0.4532716
6524,3.392114,3.360977,0.4532716
6526,3.321484,3.289976,0.4524074
6529,3.321484,3.289976,0.4524074
6532,3.216924,3.184814,0.4515415
6534,3.178045,3.145663,0.4519747
6536,3.178045,3.145663,0.4519747
6538,3.091932,3.057935,0.4575681
6541,3.091932,3.057935,0.4575681
6543,3.02388,2.988389,0.4626713
6545,3.02388,2.988389,0.4626713
6548,2.99369,2.957507,0.4652019
6550,2.967683,2.930912,0.4673002
6552,2.946566,2.909124,0.4698059
6555,2.928172,2.890221,0.4718838
6557,2.928172,2.890221,0.4718838
6559,2.912016,2.873512,0.4739525
6562,2.88215,2.843173,0.4751895
6564,2.88215,2.843173,0.4751895
6566,2.863138,2.824038,0.4747775
6569,2.863138,2.824038,0.4747775
6572,2.856636,2.817653,0.4739525
6574,2.856636,2.817653,0.4739525
6577,2.842209,2.803724,0.4706381
6579,2.835037,2.796944,0.4689721
6581,2.835037,2.796944,0.4689721
6584,2.825354,2.788112,0.464781
6586,2.825354,2.788112,0.464781
6588,2.821957,2.785021,0.4622481
6591,2.817306,2.781223,0.4588492
6593,2.817306,2.781223,0.4588492
6595,2.81369,2.778265,0.4554249
6598,2.81369,2.778265,0.4554249
6600,2.810906,2.775657,0.4541341
6602,2.810906,2.775657,0.4541341
6605,2.87678,2.845513,0.4396856
6607,2.900498,2.870649,0.4343124
6609,2.900498,2.870649,0.4343124
6612,2.977035,2.950814,0.4201138
6615,2.977035,2.950814,0.4201138
6617,3.005503,2.980715,0.4154301
6620,3.005503,2.980715,0.4154301
6622,3.053578,3.031057,0.4054182
6624,3.071732,3.05005,0.4020255
6626,3.071732,3.05005,0.4020255
6629,3.099962,3.079624,0.3966355
6631,3.099962,3.079624,0.3966355
6633,3.110931,3.091108,0.3941611
6636,3.202102,3.179646,0.414487
6638,3.202102,3.179646,0.414487
6640,3.253414,3.227375,0.4387946
6643,3.253414,3.227375,0.4387946
6645,3.267825,3.239424,0.4524074
6647,3.267825,3.239424,0.4524074
6650,3.292237,3.260327,0.4731261
6652,3.281754,3.250766,0.4689721
6654,3.281754,3.250766,0.4689721
6658,3.268903,3.239182,0.463094
6660,3.268903,3.239182,0.463094
6662,3.187211,3.158147,0.454995
6665,3.157775,3.128877,0.4524074
6667,3.157775,3.128877,0.4524074
6669,3.144542,3.118536,0.4361108
6672,3.144542,3.118536,0.4361108
6674,3.139994,3.115019,0.4302385
6676,3.139994,3.115019,0.4302385
6679,3.141304,3.118787,0.4168407
6681,3.141927,3.120293,0.4116447
6683,3.141927,3.120293,0.4116447
6686,3.145974,3.125872,0.4039677
6688,3.145974,3.125872,0.4039677
6690,3.151135,3.132254,0.3971285
6693,3.155791,3.137312,0.3946573
6695,3.155791,3.137312,0.3946573
6697,3.162731,3.144916,0.3911712
6701,3.162731,3.144916,0.3911712
6703,3.163164,3.146099,0.3871488
6705,3.163164,3.146099,0.3871488
6708,3.163474,3.146783,0.3851218
6710,3.164093,3.147467,0.3851218
6712,3.164093,3.147467,0.3851218
6714,3.165268,3.148711,0.3846134
6717,3.165268,3.148711,0.3846134
6719,3.163721,3.147405,0.3841043
6721,3.163721,3.147405,0.3841043
6724,3.161927,3.145725,0.3841043
6726,3.159883,3.143857,0.3846134
6728,3.159883,3.143857,0.3846134
6731,3.158829,3.142737,0.3846134
6733,3.158829,3.142737,0.3846134
6735,3.157527,3.141615,0.3856296
6738,3.157403,3.14149,0.386643
6740,3.157403,3.14149,0.386643
6743,3.157279,3.141428,0.3871488
6746,3.157279,3.141428,0.3871488
6748,3.158581,3.142487,0.3886621
6750,3.158581,3.142487,0.3886621
6753,3.156163,3.13962,0.393167
6755,3.153433,3.136501,0.3961419
6757,3.153433,3.136501,0.3961419
6760,3.152874,3.135565,0.3995845
6762,3.152874,3.135565,0.3995845
6764,3.154115,3.136751,0.4010509
6767,3.157403,3.13987,0.4039677
6769,3.157403,3.13987,0.4039677
6771,3.159325,3.141428,0.4059006
6774,3.159325,3.141428,0.4059006
6776,3.162422,3.144356,0.4083038
6778,3.162422,3.144356,0.4083038
6781,3.164711,3.146534,0.4102162
6784,3.160564,3.141989,0.4125943
6786,3.160564,3.141989,0.4125943
6789,3.154612,3.135565,0.4154301
6791,3.154612,3.135565,0.4154301
6793,3.152501,3.133316,0.416371
6796,3.152501,3.133316,0.416371
6798,3.145414,3.125622,0.4201138
6800,3.142923,3.122927,0.4210443
6802,3.142923,3.122927,0.4210443
6805,3.077399,3.055053,0.4306931
6807,3.077399,3.055053,0.4306931
6809,3.056462,3.030088,0.4493696
6812,3.059215,3.030153,0.4622481
6814,3.059215,3.030153,0.4622481
6816,3.075426,3.041438,0.4861804
6819,3.075426,3.041438,0.4861804
6821,3.086989,3.050628,0.4977152
6823,3.086989,3.050628,0.4977152
6827,3.107468,3.067459,0.5158621
6829,3.12368,3.080959,0.53008
6831,3.12368,3.080959,0.53008
6834,3.129503,3.085657,0.5352231
6836,3.129503,3.085657,0.5352231
6838,3.139433,3.093514,0.5450047
6841,3.143048,3.096361,0.5492961
6843,3.143048,3.096361,0.5492961
6845,3.1484,3.100152,0.5560232
6848,3.1484,3.100152,0.5560232
6850,3.150389,3.101478,0.5591815
6852,3.150389,3.101478,0.5591815
6855,3.151011,3.101162,0.5637122
6857,3.151321,3.100972,0.5657911
6859,3.151321,3.100972,0.5657911
6862,3.15275,3.101919,0.5685511
6864,3.15275,3.101919,0.5685511
6866,3.153371,3.102235,0.5699261
6870,3.165763,3.114139,0.5736903
6872,3.165763,3.114139,0.5736903
6874,3.184384,3.131879,0.5801346
6877,3.184384,3.131879,0.5801346
6879,3.18893,3.135877,0.5834977
6881,3.18893,3.135877,0.5834977
6884,3.194818,3.140618,0.590498
6886,3.196656,3.141927,0.5941319
6888,3.196656,3.141927,0.5941319
6890,3.19837,3.143048,0.5974163
6893,3.19837,3.143048,0.5974163
6895,3.200757,3.144605,0.6026341
6897,3.200757,3.144605,0.6026341
6900,3.201979,3.145414,0.6049027
6902,3.201551,3.144667,0.6068404
6904,3.201551,3.144667,0.6068404
6907,3.20149,3.143982,0.6100564
6909,3.20149,3.143982,0.6100564
6912,3.19837,3.140368,0.6119779
6915,3.194511,3.135502,0.6161205
6917,3.194511,3.135502,0.6161205
6919,3.190219,3.131004,0.6167554
6922,3.190219,3.131004,0.6167554
6924,3.187026,3.127563,0.6173896
6926,3.187026,3.127563,0.6173896
6929,3.180077,3.120419,0.6177064
6931,3.176689,3.116778,0.6177064
6933,3.176689,3.116778,0.6177064
6936,3.175642,3.11615,0.615167
6938,3.175642,3.11615,0.615167
6940,3.175457,3.11615,0.6145305
6943,3.175395,3.11615,0.6145305
6945,3.175395,3.11615,0.6145305
6947,3.180754,3.12205,0.612617
6950,3.180754,3.12205,0.612617
6952,3.182846,3.124243,0.6119779
6955,3.182846,3.124243,0.6119779
6958,3.184691,3.126123,0.6119779
6960,3.189114,3.130816,0.6106976
6962,3.189114,3.130816,0.6106976
6965,3.190035,3.131879,0.6097356
6967,3.190035,3.131879,0.6097356
6969,3.190771,3.132816,0.6090934
6972,3.190771,3.132816,0.6090934
6974,3.189851,3.131942,0.6084505
6976,3.177614,3.119603,0.6074851
6978,3.177614,3.119603,0.6074851
6981,3.16805,3.109987,0.6068404
6983,3.16805,3.109987,0.6068404
6985,3.154115,3.096045,0.6055493
6988,3.149022,3.091172,0.6042554
6990,3.149022,3.091172,0.6042554
6992,3.146223,3.088384,0.6032831
6995,3.146223,3.088384,0.6032831
6998,3.143795,3.085974,0.6026341
7000,3.143795,3.085974,0.6026341
7003,3.14149,3.08369,0.6023093
7005,3.131316,3.072751,0.6039315
7007,3.131316,3.072751,0.6039315
7010,3.12487,3.065799,0.6058724
7012,3.12487,3.065799,0.6058724
7014,3.119541,3.059855,0.6071628
7017,3.115019,3.054924,0.6084505
7019,3.115019,3.054924,0.6084505
7021,3.11156,3.051013,0.6110179
7024,3.11156,3.051013,0.6110179
7026,3.107279,3.046518,0.6110179
7028,3.107279,3.046518,0.6110179
7031,3.103749,3.042789,0.6113381
7033,3.101162,3.039957,0.6122975
7035,3.101162,3.039957,0.6122975
7038,3.101478,3.040021,0.6132555
7041,3.101478,3.040021,0.6132555
7043,3.101478,3.039828,0.614212
7046,3.101225,3.03957,0.6145305
7048,3.101225,3.03957,0.6145305
7050,3.100846,3.039313,0.614212
7053,3.100846,3.039313,0.614212
7055,3.09693,3.034801,0.6167554
7057,3.09693,3.034801,0.6167554
7059,3.088194,3.025239,0.6199199
7062,3.083817,3.020447,0.6211812
7064,3.083817,3.020447,0.6211812
7066,3.080196,3.01649,0.6224399
7069,3.080196,3.01649,0.6224399
7071,3.070329,3.005894,0.6246366
7073,3.070329,3.005894,0.6246366
7076,3.066757,3.001984,0.6252628
7078,3.064649,2.999701,0.6255757
7080,3.064649,2.999701,0.6255757
7084,3.06286,2.997873,0.6255757
7086,3.06286,2.997873,0.6255757
7088,3.056718,2.991663,0.6243232
7091,3.054476,2.989372,0.6236961
7093,3.054476,2.989372,0.6236961
7095,2.969595,2.908451,0.5970887
7098,2.969595,2.908451,0.5970887
7100,2.891305,2.833587,0.5740312
7102,2.891305,2.833587,0.5740312
7105,2.883984,2.826324,0.5730078
7107,2.876916,2.81932,0.5716401
7109,2.876916,2.81932,0.5716401
7112,2.811185,2.756763,0.5510744
7114,2.811185,2.756763,0.5510744
7116,2.708627,2.659106,0.5188877
7119,2.727854,2.677153,0.5256317
7121,2.727854,2.677153,0.5256317
7123,2.742168,2.690718,0.530449
7127,2.742168,2.690718,0.530449
7129,2.664401,2.616437,0.5066768
7131,2.664401,2.616437,0.5066768
7134,2.632324,2.585734,0.4969283
7136,2.580961,2.536516,0.4821389
7138,2.580961,2.536516,0.4821389
7141,2.498105,2.457184,0.4579955
7143,2.498105,2.457184,0.4579955
7145,2.539216,2.49591,0.4722982
7147,2.571007,2.525845,0.4833549
7150,2.571007,2.525845,0.4833549
7152,2.684455,2.633067,0.5226451
7154,2.684455,2.633067,0.5226451
7157,2.725198,2.671517,0.5363187
7159,2.725198,2.671517,0.5363187
7161,2.773188,2.716925,0.5532007
7164,2.844137,2.783896,0.57743
7166,2.844137,2.783896,0.57743
7169,2.87712,2.815221,0.5885065
7172,2.87712,2.815221,0.5885065
7174,2.926968,2.862454,0.6049027
7176,2.926968,2.862454,0.6049027
7179,2.860881,2.799253,0.5848376
7181,2.761446,2.704288,0.555319
7183,2.761446,2.704288,0.555319
7186,2.772976,2.714691,0.5616257
7188,2.772976,2.714691,0.5616257
7190,2.789094,2.728859,0.5712977
7193,2.798833,2.737167,0.5781073
7195,2.798833,2.737167,0.5781073
7197,2.738025,2.679346,0.5591815
7200,2.738025,2.679346,0.5591815
7202,2.744737,2.68584,0.5605795
7204,2.744737,2.68584,0.5605795
7207,2.75385,2.694571,0.5630175
7209,2.701971,2.645453,0.5457222
7212,2.701971,2.645453,0.5457222
7215,2.656307,2.602184,0.530449
7217,2.656307,2.602184,0.530449
7219,2.56323,2.51396,0.4988932
7222,2.477808,2.433089,0.4698059
7224,2.477808,2.433089,0.4698059
7226,2.522666,2.475674,0.4849715
7229,2.522666,2.475674,0.4849715
7231,2.586643,2.536285,0.5062904
7233,2.586643,2.536285,0.5062904
7235,2.559791,2.510376,0.4996771
7238,2.536671,2.488056,0.4933717
7240,2.536671,2.488056,0.4933717
7242,2.566587,2.516295,0.5043544
7245,2.566587,2.516295,0.5043544
7247,2.63975,2.58581,0.5274898
7249,2.63975,2.58581,0.5274898
7252,2.66609,2.61097,0.5359538
7255,2.60459,2.552823,0.513962
7257,2.60459,2.552823,0.513962
7260,2.537905,2.489472,0.4929749
7262,2.537905,2.489472,0.4929749
7264,2.501629,2.454952,0.4817329
7267,2.436626,2.393347,0.4601268
7269,2.436626,2.393347,0.4601268
7271,2.407534,2.365875,0.4498048
7274,2.407534,2.365875,0.4498048
7276,2.360823,2.321615,0.4338616
7278,2.360823,2.321615,0.4338616
7281,2.341677,2.303333,0.4279585
7283,2.310121,2.272967,0.4196478
7285,2.310121,2.272967,0.4196478
7288,2.284991,2.248292,0.4154301
7290,2.284991,2.248292,0.4154301
7292,2.278128,2.241317,0.4149588
7296,2.263908,2.227389,0.4121198
7298,2.263908,2.227389,0.4121198
7300,2.256721,2.220261,0.4111691
7303,2.256721,2.220261,0.4111691
7305,2.336154,2.295246,0.4396856
7307,2.336154,2.295246,0.4396856
7310,2.453517,2.405827,0.4817329
7312,2.451921,2.404118,0.4821389
7314,2.451921,2.404118,0.4821389
7317,2.451042,2.403059,0.4825446
7319,2.451042,2.403059,0.4825446
7321,2.410135,2.364302,0.4698059
7323,2.394491,2.349354,0.4652019
7326,2.394491,2.349354,0.4652019
7328,2.349271,2.305796,0.453703
7330,2.349271,2.305796,0.453703
7333,2.33129,2.2885,0.4489339
7335,2.33129,2.2885,0.4489339
7337,2.299421,2.257674,0.4405747
7341,2.286703,2.245418,0.4374548
7343,2.286703,2.245418,0.4374548
7345,2.263129,2.222199,0.4334104
7348,2.263129,2.222199,0.4334104
7350,2.253335,2.212578,0.4320539
7352,2.253335,2.212578,0.4320539
7355,2.240444,2.199803,0.4306931
7357,2.234671,2.194102,0.4297835
7359,2.234671,2.194102,0.4297835
7362,2.226159,2.185611,0.4284154
7364,2.226159,2.185611,0.4284154
7366,2.221935,2.181488,0.427501
7369,2.225807,2.185074,0.429328
7371,2.225807,2.185074,0.429328
7373,2.229322,2.188206,0.4311472
7376,2.229322,2.188206,0.4311472
7378,2.226862,2.186238,0.4284154
7380,2.226862,2.186238,0.4284154
7384,2.225192,2.184805,0.4270431
7386,2.223608,2.183551,0.4256662
7388,2.221847,2.181847,0.4247459
7391,2.21982,2.180142,0.4233615
7393,2.21982,2.180142,0.4233615
7395,2.228356,2.188117,0.427501
7398,2.230638,2.190084,0.4284154
7400,2.230638,2.190084,0.4284154
7402,2.241754,2.201049,0.4302385
7405,2.241754,2.201049,0.4302385
7407,2.245069,2.204336,0.4306931
7409,2.245069,2.204336,0.4306931
7411,2.415812,2.366371,0.4853748
7414,2.480098,2.427451,0.5059038
7416,2.480098,2.427451,0.5059038
7418,2.474567,2.421881,0.5047422
7421,2.474567,2.421881,0.5047422
7424,2.473301,2.420669,0.5047422
7426,2.439195,2.388107,0.4941643
7429,2.439195,2.388107,0.4941643
7431,2.417351,2.367363,0.4873863
7433,2.417351,2.367363,0.4873863
7436,2.484119,2.430433,0.509757
7438,2.484119,2.430433,0.509757
7440,2.586491,2.527084,0.5446455
7443,2.571844,2.513182,0.5406791
7445,2.571844,2.513182,0.5406791
7447,2.552286,2.49442,0.5348573
7450,2.552286,2.49442,0.5348573
7452,2.520415,2.464263,0.5241405
7454,2.520415,2.464263,0.5241405
7457,2.474172,2.420426,0.508604
7459,2.445366,2.393265,0.4981082
7461,2.445366,2.393265,0.4981082
7464,2.402488,2.352934,0.4829499
7467,2.402488,2.352934,0.4829499
7469,2.383431,2.334813,0.4768338
7472,2.354929,2.307747,0.4673002
7474,2.354929,2.307747,0.4673002
7476,2.34435,2.297803,0.4635163
7479,2.34435,2.297803,0.4635163
7481,2.327929,2.282334,0.4571402
7483,2.327929,2.282334,0.4571402
7486,2.320518,2.275463,0.454995
7488,2.308849,2.264599,0.4502396
7490,2.308849,2.264599,0.4502396
7493,2.308849,2.264599,0.4502396
7495,2.308849,2.264599,0.4502396
7497,2.308849,2.264599,0.4502396
7499,2.303673,2.259667,0.4489339
7502,2.303673,2.259667,0.4489339
7504,2.298995,2.255246,0.4471871
7506,2.298995,2.255246,0.4471871
7510,2.291235,2.24777,0.4449939
7512,2.291235,2.24777,0.4449939
7514,2.287987,2.24472,0.4441136
7517,2.367446,2.319928,0.4702222
7519,2.367446,2.319928,0.4702222
7521,2.435582,2.384498,0.4925778
7524,2.435582,2.384498,0.4925778
7526,2.49175,2.437911,0.5105241
7528,2.49175,2.437911,0.5105241
7531,2.492301,2.438473,0.5101407
7533,2.493714,2.439837,0.5101407
7535,2.493714,2.439837,0.5101407
7538,2.455351,2.403385,0.4981082
7540,2.455351,2.403385,0.4981082
7542,2.441842,2.390564,0.4937682
7545,2.403873,2.354597,0.4813265
7547,2.403873,2.354597,0.4813265
7549,2.390237,2.341677,0.4764233
7553,2.390237,2.341677,0.4764233
7555,2.364634,2.317564,0.4668813
7557,2.364634,2.317564,0.4668813
7560,2.355345,2.308765,0.4639383
7562,2.339335,2.293625,0.4584226
7564,2.339335,2.293625,0.4584226
7567,2.333471,2.288072,0.4562834
7569,2.333471,2.288072,0.4562834
7571,2.47686,2.42382,0.5043544
7574,2.531341,2.475358,0.5222706
7576,2.531341,2.475358,0.5222706
7578,2.523751,2.467993,0.5207698
7581,2.523751,2.467993,0.5207698
7583,2.515362,2.459732,0.5196414
7585,2.515362,2.459732,0.5196414
7587,2.484671,2.430675,0.5089886
7590,2.430594,2.379157,0.4921804
7592,2.430594,2.379157,0.4921804
7595,2.40664,2.356342,0.4849715
7598,2.40664,2.356342,0.4849715
7600,2.371494,2.322711,0.4743652
7602,2.354929,2.306984,0.4689721
7605,2.354929,2.306984,0.4689721
7607,2.330366,2.283705,0.4609765
7609,2.330366,2.283705,0.4609765
7612,2.322458,2.276323,0.4579955
7614,2.322458,2.276323,0.4579955
7616,2.309189,2.263821,0.453703
7619,2.303588,2.258454,0.4519747
7621,2.303588,2.258454,0.4519747
7623,2.298995,2.25403,0.4502396
7626,2.298995,2.25403,0.4502396
7628,2.289611,2.244546,0.4498048
7630,2.289611,2.244546,0.4498048
7633,2.286104,2.240968,0.4502396
7635,2.280274,2.235109,0.4502396
7638,2.280274,2.235109,0.4502396
7641,2.277956,2.232568,0.450674
7643,2.277956,2.232568,0.450674
7645,2.272537,2.227126,0.450674
7648,2.270468,2.224928,0.4515415
7650,2.270468,2.224928,0.4515415
7652,2.264772,2.219026,0.4515415
7655,2.264772,2.219026,0.4515415
7657,2.262524,2.216643,0.4524074
7659,2.262524,2.216643,0.4524074
7662,2.255072,2.209126,0.4515415
7664,2.252206,2.206289,0.4515415
7666,2.252206,2.206289,0.4515415
7668,2.237122,2.191335,0.4489339
7671,2.237122,2.191335,0.4489339
7673,2.22695,2.181309,0.4471871
7675,2.225016,2.179334,0.4463111
7678,2.225016,2.179334,0.4463111
7681,2.221759,2.176188,0.4463111
7683,2.221759,2.176188,0.4463111
7686,2.219908,2.174209,0.4467493
7688,2.219908,2.174209,0.4467493
7690,2.216908,2.170876,0.4476244
7693,2.212224,2.165911,0.4480613
7695,2.212224,2.165911,0.4480613
7697,2.205135,2.15867,0.4480613
7700,2.205135,2.15867,0.4480613
7702,2.18928,2.142562,0.4467493
7704,2.18928,2.142562,0.4467493
7707,2.183461,2.136708,0.4458725
7709,2.172137,2.125596,0.4441136
7711,2.172137,2.125596,0.4441136
7714,2.166815,2.120249,0.4432315
7716,2.166815,2.120249,0.4432315
7718,2.157401,2.111091,0.4419051
7721,2.153405,2.107193,0.4405747
7724,2.153405,2.107193,0.4405747
7726,2.15095,2.104498,0.4410186
7729,2.15095,2.104498,0.4410186
7731,2.151951,2.105242,0.4427898
7733,2.151951,2.105242,0.4427898
7736,2.155767,2.108679,0.4445539
7738,2.161117,2.1135,0.4471871
7740,2.161117,2.1135,0.4471871
7743,2.163832,2.115999,0.4484978
7745,2.163832,2.115999,0.4484978
7747,2.167628,2.11951,0.4502396
7750,2.169793,2.121633,0.4519747
7752,2.169793,2.121633,0.4519747
7754,2.172768,2.124214,0.453703
7756,2.172768,2.124214,0.453703
7759,2.173759,2.125044,0.4545648
7761,2.177267,2.128448,0.4545648
7763,2.180052,2.131205,0.454995
7767,2.178705,2.130471,0.4528397
7769,2.178705,2.130471,0.4528397
7771,2.175919,2.127897,0.4511079
7774,2.175919,2.127897,0.4511079
7776,2.174929,2.127621,0.4484978
7778,2.176728,2.129736,0.4467493
7781,2.176728,2.129736,0.4467493
7783,2.177357,2.130563,0.4463111
7785,2.177357,2.130563,0.4463111
7788,2.180052,2.133133,0.4476244
7790,2.180052,2.133133,0.4476244
7792,2.18095,2.133959,0.4480613
7795,2.187133,2.140003,0.4484978
7797,2.187133,2.140003,0.4484978
7799,2.18928,2.142288,0.4489339
7802,2.18928,2.142288,0.4489339
7804,2.18767,2.14046,0.4489339
7806,2.18767,2.14046,0.4489339
7810,2.188117,2.1411,0.4489339
7812,2.18919,2.142197,0.4489339
7814,2.18919,2.142197,0.4489339
7817,2.190263,2.143476,0.4484978
7819,2.190263,2.143476,0.4484978
7821,2.190531,2.143658,0.4480613
7824,2.192228,2.145849,0.4471871
7826,2.192228,2.145849,0.4471871
7828,2.193477,2.147125,0.4471871
7831,2.193477,2.147125,0.4471871
7833,2.195172,2.148856,0.4467493
7835,2.195172,2.148856,0.4467493
7838,2.189369,2.143384,0.4449939
7840,2.18077,2.135426,0.4405747
7842,2.18077,2.135426,0.4405747
7844,2.182654,2.137716,0.4396856
7847,2.182654,2.137716,0.4396856
7849,2.183371,2.138539,0.4396856
7852,2.186865,2.141923,0.4396856
7855,2.186865,2.141923,0.4396856
7857,2.188117,2.143019,0.4401304
7859,2.188117,2.143019,0.4401304
7862,2.188743,2.143658,0.4405747
7864,2.188743,2.143658,0.4405747
7866,2.189011,2.14375,0.4414621
7869,2.18928,2.143932,0.4419051
7871,2.18928,2.143932,0.4419051
7873,2.189458,2.144023,0.4423477
7876,2.189458,2.144023,0.4423477
7878,2.191603,2.146213,0.4427898
7880,2.194637,2.14922,0.4432315
7883,2.194637,2.14922,0.4432315
7885,2.199358,2.15386,0.4449939
7887,2.199358,2.15386,0.4449939
7890,2.201049,2.155404,0.4449939
7892,2.201049,2.155404,0.4449939
7895,2.206466,2.160573,0.4471871
7898,2.208417,2.162384,0.4471871
7900,2.208417,2.162384,0.4471871
7902,2.20824,2.161841,0.4489339
7905,2.20824,2.161841,0.4489339
7907,2.208151,2.16166,0.4493696
7909,2.208151,2.16166,0.4493696
7912,2.212843,2.166363,0.4502396
7914,2.215849,2.169342,0.450674
7916,2.215849,2.169342,0.450674
7919,2.216555,2.169974,0.450674
7921,2.216555,2.169974,0.450674
7923,2.217085,2.170515,0.450674
7926,2.219291,2.172588,0.450674
7928,2.219291,2.172588,0.450674
7930,2.221847,2.175109,0.450674
7932,2.221847,2.175109,0.450674
7936,2.219379,2.173218,0.4480613
7938,2.219379,2.173218,0.4480613
7940,2.216025,2.170335,0.4445539
7943,2.214346,2.169342,0.4423477
7945,2.214346,2.169342,0.4423477
7947,2.212047,2.167537,0.4383485
7950,2.212047,2.167537,0.4383485
7952,2.216908,2.172768,0.4379019
7954,2.221494,2.177088,0.4383485
7957,2.221494,2.177088,0.4383485
7959,2.232217,2.18767,0.4396856
7961,2.232217,2.18767,0.4396856
7964,2.237909,2.193388,0.4405747
7966,2.237909,2.193388,0.4405747
7968,2.24088,2.196598,0.4401304
7971,2.239832,2.19544,0.4392403
7973,2.239832,2.19544,0.4392403
7975,2.242016,2.197845,0.4396856
7979,2.242016,2.197845,0.4396856
7981,2.246725,2.202382,0.4405747
7983,2.246725,2.202382,0.4405747
7986,2.331877,2.282934,0.4698059
7988,2.402733,2.349937,0.4937682
7990,2.402733,2.349937,0.4937682
7993,2.462038,2.405908,0.5143426
7995,2.462038,2.405908,0.5143426
7997,2.462833,2.406559,0.5154827
8000,2.439837,2.384334,0.5101407
8002,2.439837,2.384334,0.5101407
8004,2.404769,2.350437,0.5008504
8007,2.404769,2.350437,0.5008504
8009,2.392529,2.338666,0.4985009
8011,2.392529,2.338666,0.4985009
8014,2.369264,2.316213,0.4929749
8016,2.325153,2.273397,0.4825446
8018,2.325153,2.273397,0.4825446
8020,2.287559,2.236947,0.4743652
8024,2.287559,2.236947,0.4743652
8026,2.273656,2.223432,0.4714689
8028,2.239395,2.189369,0.4668813
8031,2.239395,2.189369,0.4668813
8033,2.20407,2.154132,0.4622481
8035,2.20407,2.154132,0.4622481
8038,2.185253,2.135517,0.4592754
8040,2.185253,2.135517,0.4592754
8042,2.169523,2.119787,0.4571402
8045,2.131665,2.081683,0.453703
8047,2.131665,2.081683,0.453703
8049,2.098818,2.048418,0.4502396
8052,2.098818,2.048418,0.4502396
8054,2.083375,2.032784,0.4489339
8056,2.048704,1.997922,0.4449939
8059,2.048704,1.997922,0.4449939
8061,2.030376,1.979618,0.4427898
8064,2.030376,1.979618,0.4427898
8067,2.082717,2.026999,0.468137
8069,2.082717,2.026999,0.468137
8071,2.18382,2.120618,0.508604
8074,2.221582,2.155676,0.5241405
8076,2.221582,2.155676,0.5241405
8078,2.336154,2.261745,0.5702693
8081,2.336154,2.261745,0.5702693
8083,2.380144,2.302398,0.5875081
8085,2.380144,2.302398,0.5875081
8088,2.360408,2.278815,0.5993783
8090,2.354597,2.271417,0.6045791
8092,2.354597,2.271417,0.6045791
8095,2.29891,2.213462,0.6055493
8097,2.29891,2.213462,0.6055493
8099,2.302823,2.213904,0.6177064
8102,2.322879,2.231866,0.6277614
8104,2.322879,2.231866,0.6277614
8107,2.35576,2.26088,0.6449805
8109,2.35576,2.26088,0.6449805
8112,2.381377,2.284476,0.6552143
8114,2.381377,2.284476,0.6552143
8116,2.422205,2.321699,0.6728944
8119,2.392202,2.292089,0.6676395
8121,2.392202,2.292089,0.6676395
8123,2.349937,2.249685,0.6617518
8126,2.349937,2.249685,0.6617518
8128,2.373803,2.271675,0.6711472
8130,2.383924,2.28079,0.6763749
8133,2.383924,2.28079,0.6763749
8135,2.415002,2.309782,0.6872803
8137,2.415002,2.309782,0.6872803
8140,2.427613,2.321446,0.6923862
8142,2.427613,2.321446,0.6923862
8144,2.448406,2.340925,0.699975
8147,2.457502,2.349271,0.7035998
8150,2.457502,2.349271,0.7035998
8152,2.474488,2.365296,0.709416
8155,2.474488,2.365296,0.709416
8157,2.481912,2.372071,0.7124436
8159,2.481912,2.372071,0.7124436
8162,2.442002,2.333136,0.7035998
8164,2.373391,2.2665,0.6869956
8166,2.373391,2.2665,0.6869956
8169,2.325742,2.220437,0.6743467
8171,2.325742,2.220437,0.6743467
8173,2.25377,2.150495,0.6570037
8176,2.221847,2.119972,0.6477052
8178,2.221847,2.119972,0.6477052
8180,2.173038,2.073299,0.6342734
8183,2.173038,2.073299,0.6342734
8185,2.157401,2.05871,0.6286958
8187,2.157401,2.05871,0.6286958
8190,2.132307,2.034901,0.6205508
8193,2.115536,2.019454,0.614212
8195,2.115536,2.019454,0.614212
8197,2.109607,2.01402,0.6116581
8200,2.109607,2.01402,0.6116581
8202,2.102917,2.008668,0.6068404
8204,2.101427,2.007986,0.6042554
8207,2.101427,2.007986,0.6042554
8209,2.105707,2.013048,0.6026341
8211,2.105707,2.013048,0.6026341
8214,2.109607,2.017127,0.6029587
8216,2.112203,2.019842,0.6029587
8218,2.120249,2.028351,0.6029587
8221,2.130195,2.038937,0.6023093
8223,2.130195,2.038937,0.6023093
8225,2.132674,2.041718,0.6023093
8228,2.132674,2.041718,0.6023093
8230,2.238958,2.145483,0.6252628
8232,2.304013,2.209746,0.6367366
8236,2.304013,2.209746,0.6367366
8238,2.402652,2.306984,0.6546168
8240,2.402652,2.306984,0.6546168
8243,2.407128,2.313,0.6501176
8245,2.407128,2.313,0.6501176
8247,2.415407,2.323721,0.6437659
8250,2.419294,2.328349,0.6416347
8252,2.419294,2.328349,0.6416347
8254,2.352851,2.268312,0.6106976
8257,2.352851,2.268312,0.6106976
8259,2.28079,2.202738,0.5777687
8261,2.28079,2.202738,0.5777687
8264,2.241492,2.166815,0.5609285
8266,2.16826,2.099004,0.5311863
8268,2.16826,2.099004,0.5311863
8271,2.105893,2.040856,0.5074486
8273,2.105893,2.040856,0.5074486
8275,2.081683,2.018291,0.4985009
8278,2.038841,1.97853,0.4809199
8281,2.038841,1.97853,0.4809199
8283,2.021779,1.96264,0.4743652
8285,2.021779,1.96264,0.4743652
8288,1.998901,1.941687,0.4643598
8290,1.998901,1.941687,0.4643598
8292,1.988889,1.932392,0.4601268
8295,1.988496,1.933809,0.453703
8297,1.988496,1.933809,0.453703
8299,1.98692,1.932999,0.450674
8302,1.98692,1.932999,0.450674
8304,1.98761,1.934315,0.4484978
8306,1.986329,1.933404,0.4467493
8309,1.986329,1.933404,0.4467493
8311,1.995668,1.9434,0.4454334
8313,1.995668,1.9434,0.4454334
8316,1.997824,1.945916,0.4449939
8318,1.997824,1.945916,0.4449939
8321,2.010226,1.958547,0.4449939
8324,2.01334,1.961942,0.4449939
8326,2.01334,1.961942,0.4449939
8328,2.019939,1.968912,0.4454334
8331,2.019939,1.968912,0.4454334
8333,2.021198,1.970104,0.4445539
8335,2.022456,1.971892,0.4458725
8338,2.02294,1.971892,0.4458725
8340,2.022553,1.971594,0.4454334
8342,2.022553,1.971594,0.4454334
8345,2.017612,1.965928,0.4476244
8347,2.017612,1.965928,0.4476244
8349,2.012853,1.960844,0.4493696
8352,2.000174,1.94672,0.4541341
8354,2.000174,1.94672,0.4541341
8356,1.995079,1.940981,0.4558544
8359,1.995079,1.940981,0.4558544
8361,1.984949,1.930061,0.4575681
8364,1.984949,1.930061,0.4575681
8366,1.976947,1.921627,0.4584226
8369,2.055475,1.995373,0.4857778
8371,2.055475,1.995373,0.4857778
8373,2.174119,2.106636,0.5267473
8376,2.174119,2.106636,0.5267473
8378,2.200782,2.130011,0.5421248
8380,2.242539,2.167086,0.5650989
8383,2.242539,2.167086,0.5650989
8385,2.289782,2.210631,0.5845029
8387,2.289782,2.210631,0.5845029
8390,2.363309,2.278385,0.614212
8392,2.363309,2.278385,0.614212
8394,2.44096,2.350353,0.6434618
8397,2.472035,2.379321,0.6552143
8399,2.472035,2.379321,0.6552143
8401,2.512481,2.417109,0.6688108
8404,2.512481,2.417109,0.6688108
8407,2.529949,2.433572,0.6749268
8409,2.51396,2.417918,0.6711472
8412,2.51396,2.417918,0.6711472
8414,2.489472,2.394491,0.6644077
8416,2.489472,2.394491,0.6644077
8419,2.505694,2.411839,0.6635236
8421,2.505694,2.411839,0.6635236
8423,2.513649,2.419941,0.6638185
8426,2.462595,2.373474,0.6407191
8428,2.462595,2.373474,0.6407191
8430,2.377017,2.294393,0.6065179
8433,2.377017,2.294393,0.6065179
8435,2.317987,2.23922,0.5845029
8437,2.317987,2.23922,0.5845029
8440,2.230287,2.157401,0.5521386
8442,2.230287,2.157401,0.5521386
8444,2.230287,2.157401,0.5521386
8448,2.230287,2.157401,0.5521386
8450,2.230287,2.157401,0.5521386
8452,2.187759,2.118495,0.533025
8454,2.152678,2.086379,0.518133
8457,2.152678,2.086379,0.518133
8459,2.109143,2.047175,0.4973219
8461,2.109143,2.047175,0.4973219
8464,2.096485,2.036055,0.4897892
8466,2.096485,2.036055,0.4897892
8468,2.084783,2.026516,0.4809199
8471,2.081683,2.024874,0.4751895
8473,2.081683,2.024874,0.4751895
8475,2.085346,2.029315,0.4731261
8478,2.085346,2.029315,0.4731261
8480,2.088535,2.033651,0.4693892
8482,2.088629,2.03442,0.4677188
8485,2.088629,2.03442,0.4677188
8487,2.101055,2.047653,0.4660423
8489,2.101055,2.047653,0.4660423
8493,2.104498,2.051568,0.4643598
8495,2.104498,2.051568,0.4643598
8497,2.112759,2.060516,0.4626713
8500,2.116831,2.064975,0.4622481
8502,2.116831,2.064975,0.4622481
8504,2.117755,2.065828,0.4622481
8507,2.117755,2.065828,0.4622481
8509,2.120618,2.068763,0.4626713
8511,2.122187,2.07037,0.463094
8514,2.122187,2.07037,0.463094
8516,2.123293,2.07141,0.4626713
8518,2.123293,2.07141,0.4626713
8521,2.123569,2.071599,0.463094
8523,2.123569,2.071599,0.463094
8525,2.122002,2.069519,0.4639383
8528,2.118679,2.065923,0.4656223
8530,2.118679,2.065923,0.4656223
8532,2.117016,2.064122,0.4660423
8536,2.117016,2.064122,0.4660423
8538,2.112203,2.058805,0.4677188
8540,2.112203,2.058805,0.4677188
8542,2.110071,2.056523,0.4677188
8545,2.107658,2.053666,0.4685547
8547,2.107658,2.053666,0.4685547
8549,2.108122,2.054237,0.4689721
8552,2.108122,2.054237,0.4689721
8554,2.109329,2.055571,0.4685547
8556,2.114148,2.060421,0.4689721
8559,2.114148,2.060421,0.4689721
8561,2.117386,2.063553,0.4698059
8563,2.117386,2.063553,0.4698059
8566,2.123016,2.068952,0.4714689
8568,2.123016,2.068952,0.4714689
8570,2.125504,2.071504,0.4718838
8573,2.128541,2.074337,0.4727124
8576,2.128541,2.074337,0.4727124
8578,2.1335,2.07952,0.4727124
8581,2.1335,2.07952,0.4727124
8583,2.134876,2.081025,0.4731261
8585,2.138082,2.084314,0.4727124
8588,2.140552,2.086848,0.4727124
8590,2.142471,2.088722,0.4727124
8592,2.142471,2.088722,0.4727124
8595,2.149038,2.095551,0.4735395
8597,2.149038,2.095551,0.4735395
8599,2.15095,2.097698,0.4727124
8602,2.151951,2.098724,0.4722982
8604,2.151951,2.098724,0.4722982
8606,2.152041,2.098911,0.4722982
8609,2.152041,2.098911,0.4722982
8611,2.159849,2.1071,0.4714689
8613,2.159849,2.1071,0.4714689
8616,2.162384,2.109885,0.4706381
8619,2.169523,2.117016,0.4706381
8621,2.169523,2.117016,0.4706381
8624,2.171867,2.119418,0.4706381
8626,2.171867,2.119418,0.4706381
8628,2.175828,2.123569,0.4693892
8630,2.178525,2.126793,0.468137
8633,2.178525,2.126793,0.468137
8635,2.178436,2.126885,0.4668813
8637,2.178436,2.126885,0.4668813
8640,2.177896,2.126885,0.464781
8642,2.177896,2.126885,0.464781
8644,2.178346,2.127437,0.4639383
8647,2.178885,2.128173,0.463094
8649,2.178885,2.128173,0.463094
8651,2.180232,2.129644,0.4626713
8654,2.180232,2.129644,0.4626713
8656,2.181757,2.131665,0.4614008
8658,2.183551,2.133592,0.4609765
8662,2.183551,2.133592,0.4609765
8664,2.185969,2.13625,0.4601268
8666,2.185969,2.13625,0.4601268
8669,2.188117,2.138265,0.4609765
8671,2.188117,2.138265,0.4609765
8673,2.191067,2.1411,0.4614008
8676,2.191692,2.141466,0.4618246
8678,2.191692,2.141466,0.4618246
8680,2.192139,2.141923,0.4622481
8683,2.192139,2.141923,0.4622481
8685,2.192317,2.14174,0.4635163
8687,2.192228,2.141649,0.4639383
