time,turnedAngle,pitchAngle,yawAngle
8,0,0,0
699902,0,0,0
699905,0,0,0
699908,0,0,0
69??b??,0,0,0
699913,0,0,0
699915,0,0,0
699918,0,0,0
699920,0,0,0
699923,0,0,0
699925,0,0,0
699928,0,0,0
699930,0,0,0
699933,0,0,0
699935,0,0,0
699938,0,0,0
699940,0,0,0
699942,0,0,0
699945,0,0,0
699948,0,0,0
699951,0,0,0
699953,0,0,0
699956,0,0,0
699958,0,0,0
699961,0,0,0
699963,0,0,0
699966,0,0,0
699968,0,0,0
699971,0,0,0
699973,0,0,0
699976,0,0,0
699978,0,0,0
699981,0,0,0
699983,0,0,0
699986,0,0,0
699988,0,0,0
699992,0,0,0
699994,0,0,0
699997,0,0,0
699999,0,0,0
700002,0,0,0
700004,0,0,0
700007,0,0,0
700009,0,0,0
700012,0,0,0
700014,0,0,0
700017,0,0,0
700019,0,0,0
700022,0,0,0
700024,0,0,0
700027,0,0,0
700029,0,0,0
700033,0,0,0
700035,0,0,0
700038,0,0,0
700040,0,0,0
700043,0,0,0
700045,0,0,0
700048,0,0,0
700050,0,0,0
700053,0,0,0
700055,0,0,0
700058,0,0,0
700060,0,0,0
700063,0,0,0
700065,0,0,0
700068,0,0,0
700070,0,0,0
700072,0,0,0
700076,0,0,0
700078,0,0,0
700081,0,0,0
700083,0,0,0
700086,0,0,0
700088,0,0,0
700091,0,0,0
700093,0,0,0
700096,0,0,0
700098,0,0,0
700101,0,0,0
700103,0,0,0
700106,0,0,0
700108,0,0,0
700111,0,0,0
700113,0,0,0
700116,0,0,0
700119,0,0,0
700122,0,0,0
700124,0,0,0
700127,0,0,0
700129,0,0,0
700132,0,0,0
700134,0,0,0
700137,0,0,0
700139,0,0,0
700142,0,0,0
700144,0,0,0
700147,0,0,0
700149,0,0,0
700152,0,0,0
700154,0,0,0
700157,0,0,0
700160,0,0,0
700163,0,0,0
700165,0,0,0
700168,0,0,0
700170,0,0,0
700173,0,0,0
700175,0,0,0
700178,0,0,0
700180,0,0,0
700183,0,0,0
700185,0,0,0
700188,0,0,0
700190,0,0,0
700193,0,0,0
700195,0,0,0
700198,0,0,0
700200,0,0,0
700203,0,0,0
700206,0,0,0
700208,0,0,0
700211,0,0,0
700213,0,0,0
700216,0,0,0
700218,0,0,0
700221,0,0,0
700223,0,0,0
700226,0,0,0
700228,0,0,0
700231,0,0,0
700233,0,0,0
700236,0,0,0
700238,0,0,0
700241,0,0,0
700243,0,0,0
700247,0,0,0
700249,0,0,0
700252,0,0,0
700254,0,0,0
700257,0,0,0
700259,0,0,0
700262,0,0,0
700264,0,0,0
700267,0,0,0
700269,0,0,0
700272,0,0,0
700274,0,0,0
700277,0,0,0
700279,0,0,0
700282,0,0,0
700284,0,0,0
700288,0,0,0
700290,0,0,0
700293,0,0,0
700295,0,0,0
700298,0,0,0
700300,0,0,0
700303,0,0,0
700305,0,0,0
700308,0,0,0
700310,0,0,0
700313,0,0,0
700315,0,0,0
700318,0,0,0
700320,0,0,0
700323,0,0,0
700325,0,0,0
700328,0,0,0
700331,0,0,0
700333,0,0,0
700336,0,0,0
700338,0,0,0
700341,0,0,0
700343,0,0,0
700346,0,0,0
700348,0,0,0
700351,0,0,0
700353,0,0,0
700356,0,0,0
700358,0,0,0
700361,0,0,0
700363,0,0,0
700366,0,0,0
700368,0,0,0
700371,0,0,0
700374,0,0,0
700377,0,0,0
700379,0,0,0
700382,0,0,0
700384,0,0,0
700387,0,0,0
700389,0,0,0
700392,0,0,0
700394,0,0,0
700397,0,0,0
700399,0,0,0
700402,0,0,0
700404,0,0,0
700407,0,0,0
700409,0,0,0
700412,0,0,0
700414,0,0,0
700418,0,0,0
700420,0,0,0
700423,0,0,0
700425,0,0,0
700428,0,0,0
700430,0,0,0
700433,0,0,0
700435,0,0,0
700438,0,0,0
700440,0,0,0
700443,0,0,0
700445,0,0,0
700448,0,0,0
700450,0,0,0
700453,0,0,0
700455,0,0,0
700459,0,0,0
700461,0,0,0
700464,0,0,0
700466,0,0,0
700468,0,0,0
700471,0,0,0
700473,0,0,0
700476,0,0,0
700478,0,0,0
700481,0,0,0
700483,0,0,0
700486,0,0,0
700488,0,0,0
700491,0,0,0
700493,0,0,0
700496,0,0,0
700498,0,0,0
700502,0,0,0
700504,0,0,0
700507,0,0,0
700509,0,0,0
700512,0,0,0
700514,0,0,0
700517,0,0,0
700519,0,0,0
700522,0,0,0
700524,0,0,0
700527,0,0,0
700529,0,0,0
700532,0,0,0
700534,0,0,0
700537,0,0,0
700539,0,0,0
700542,0,0,0
700545,0,0,0
700548,0,0,0
700550,0,0,0
700553,0,0,0
700555,0,0,0
700558,0,0,0
700560,0,0,0
700563,0,0,0
700565,0,0,0
700568,0,0,0
700570,0,0,0
700573,0,0,0
700575,0,0,0
700578,0,0,0
700580,0,0,0
700583,0,0,0
700585,0,0,0
700589,0,0,0
700591,0,0,0
700594,0,0,0
700596,0,0,0
700598,0,0,0
700601,0,0,0
700603,0,0,0
700606,0,0,0
700608,0,0,0
700611,0,0,0
700613,0,0,0
700616,0,0,0
700618,0,0,0
700621,0,0,0
700623,0,0,0
700626,0,0,0
700628,0,0,0
700632,0,0,0
700634,0,0,0
700637,0,0,0
700639,0,0,0
700642,0,0,0
700644,0,0,0
700647,0,0,0
700649,0,0,0
700652,0,0,0
700654,0,0,0
700657,0,0,0
700659,0,0,0
700662,0,0,0
700664,0,0,0
700667,0,0,0
700669,0,0,0
700673,0,0,0
700675,0,0,0
700678,0,0,0
700680,0,0,0
700683,0,0,0
700685,0,0,0
700688,0,0,0
700690,0,0,0
700693,0,0,0
700695,0,0,0
700698,0,0,0
700700,0,0,0
700703,0,0,0
700705,0,0,0
700708,0,0,0
700710,0,0,0
700713,0,0,0
700716,0,0,0
700719,0,0,0
700721,0,0,0
700724,0,0,0
700726,0,0,0
700728,0,0,0
700731,0,0,0
700733,0,0,0
700736,0,0,0
700738,0,0,0
700741,0,0,0
700743,0,0,0
700746,0,0,0
700748,0,0,0
700751,0,0,0
700753,0,0,0
700756,0,0,0
700759,0,0,0
700762,0,0,0
700764,0,0,0
700767,0,0,0
700769,0,0,0
700772,0,0,0
700774,0,0,0
700777,0,0,0
700779,0,0,0
700782,0,0,0
700784,0,0,0
700787,0,0,0
700789,0,0,0
700792,0,0,0
700794,0,0,0
700797,0,0,0
700800,0,0,0
700803,0,0,0
700805,0,0,0
700808,0,0,0
700810,0,0,0
700813,0,0,0
700815,0,0,0
700818,0,0,0
700820,0,0,0
700823,0,0,0
700825,0,0,0
700828,0,0,0
700830,0,0,0
700833,0,0,0
700835,0,0,0
700838,0,0,0
700840,0,0,0
700844,0,0,0
700846,0,0,0
700849,0,0,0
700851,0,0,0
700854,0,0,0
700856,0,0,0
700858,0,0,0
700861,0,0,0
700863,0,0,0
700866,0,0,0
700868,0,0,0
700871,0,0,0
700873,0,0,0
700876,0,0,0
700878,0,0,0
700881,0,0,0
700883,0,0,0
700887,0,0,0
700889,0,0,0
700892,0,0,0
700894,0,0,0
700897,0,0,0
700899,0,0,0
700902,0,0,0
700904,0,0,0
700907,0,0,0
700909,0,0,0
700912,0,0,0
700914,0,0,0
700917,0,0,0
700919,0,0,0
700922,0,0,0
700924,0,0,0
700928,0,0,0
700930,0,0,0
700933,0,0,0
700935,0,0,0
700938,0,0,0
700940,0,0,0
700943,0,0,0
700945,0,0,0
700948,0,0,0
700950,0,0,0
700953,0,0,0
700955,0,0,0
700958,0,0,0
700960,0,0,0
700963,0,0,0
700965,0,0,0
700968,0,0,0
700971,0,0,0
700974,0,0,0
700976,0,0,0
700979,0,0,0
700981,0,0,0
700984,0,0,0
700986,0,0,0
700988,0,0,0
700991,0,0,0
700993,0,0,0
700996,0,0,0
700998,0,0,0
701001,0,0,0
701003,0,0,0
701006,0,0,0
701008,0,0,0
701011,0,0,0
701014,0,0,0
701017,0,0,0
701019,0,0,0
701022,0,0,0
701024,0,0,0
701027,0,0,0
701029,0,0,0
701032,0,0,0
701034,0,0,0
701037,0,0,0
701039,0,0,0
701042,0,0,0
701044,0,0,0
701047,0,0,0
701049,0,0,0
701052,0,0,0
701054,0,0,0
701058,0,0,0
701060,0,0,0
701063,0,0,0
701065,0,0,0
701068,0,0,0
701070,0,0,0
701073,0,0,0
701075,0,0,0
701078,0,0,0
701080,0,0,0
701083,0,0,0
701085,0,0,0
701088,0,0,0
701090,0,0,0
701093,0,0,0
701095,0,0,0
701099,0,0,0
701101,0,0,0
701104,0,0,0
701106,0,0,0
701109,0,0,0
701111,0,0,0
701114,0,0,0
701116,0,0,0
701118,0,0,0
701121,0,0,0
701123,0,0,0
701126,0,0,0
701128,0,0,0
701131,0,0,0
701133,0,0,0
701136,0,0,0
701138,0,0,0
701142,0,0,0
701144,0,0,0
701147,0,0,0
701149,0,0,0
701152,0,0,0
701154,0,0,0
701157,0,0,0
701159,0,0,0
701162,0,0,0
701164,0,0,0
701167,0,0,0
701169,0,0,0
701172,0,0,0
701174,0,0,0
701177,0,0,0
701179,0,0,0
701182,0,0,0
701185,0,0,0
701188,0,0,0
701190,0,0,0
701193,0,0,0
701195,0,0,0
701198,0,0,0
701200,0,0,0
701203,0,0,0
701205,0,0,0
701208,0,0,0
701210,0,0,0
701213,0,0,0
701215,0,0,0
701218,0,0,0
701220,0,0,0
701223,0,0,0
701225,0,0,0
701229,0,0,0
701231,0,0,0
701234,0,0,0
701236,0,0,0
701239,0,0,0
701241,0,0,0
701244,0,0,0
701246,0,0,0
701248,0,0,0
701251,0,0,0
701253,0,0,0
701256,0,0,0
701258,0,0,0
701261,0,0,0
701263,0,0,0
701266,0,0,0
701268,0,0,0
701272,0,0,0
701274,0,0,0
701277,0,0,0
701279,0,0,0
701282,0,0,0
701284,0,0,0
701287,0.1557664,0.1532334,0.04423466
701289,0.1557664,0.1532334,0.04423466
701292,0.3380413,0.3380413,0.02797646
701294,0.3835945,0.3841043,0.03426402
701297,0.3835945,0.3841043,0.03426402
701299,0.4396856,0.4396856,0.02797646
701302,0.4849715,0.4845679,0.01978234
701304,0.4849715,0.4845679,0.01978234
701307,0.556375,0.5560232,0
701309,0.556375,0.5560232,0
701313,0.5858405,0.5851721,0
701315,0.615167,0.6135744,0
701318,0.615167,0.6135744,0
701320,0.6388841,0.6370438,-0.01978234
701323,0.6581939,0.6558113,-0.01978234
701325,0.6581939,0.6558113,-0.01978234
701328,0.6892704,0.6861406,-0.03956468
701330,0.6892704,0.6861406,-0.03956468
701333,0.7005339,0.697174,-0.04423466
701335,0.7107937,0.7069291,-0.04423466
701338,0.7107937,0.7069291,-0.04423466
701340,0.7192771,0.7154584,-0.05233916
701343,0.7311491,0.7265852,-0.05595291
701345,0.7311491,0.7265852,-0.05595291
701348,0.7356848,0.7306137,-0.05934703
701350,0.7356848,0.7306137,-0.05934703
701353,0.7391344,0.7340872,-0.05934703
701356,0.7420408,0.7367479,-0.05934703
701359,0.7420408,0.7367479,-0.05934703
701361,0.7459858,0.7407211,-0.05934703
701364,0.7467723,0.7412493,-0.06255726
701366,0.7467723,0.7412493,-0.06255726
701369,0.747558,0.7423044,-0.05934703
701371,0.747558,0.7423044,-0.05934703
701374,0.7483428,0.7441474,-0.05934703
701376,0.7509531,0.7457234,-0.06255726
701378,0.7509531,0.7457234,-0.06255726
701381,0.7522548,0.7467723,-0.06255726
701383,0.7527748,0.7472962,-0.06255726
701386,0.7527748,0.7472962,-0.06255726
701388,0.7535542,0.7478197,-0.06255726
701391,0.7535542,0.7478197,-0.06255726
701393,0.7551107,0.749388,-0.06255726
701396,0.7561465,0.7499101,-0.0656106
701399,0.7561465,0.7499101,-0.0656106
701402,0.7574393,0.7512136,-0.0656106
701404,0.7574393,0.751474,-0.0656106
701407,0.7574393,0.751474,-0.0656106
701409,0.7566639,0.7504317,-0.0656106
701412,0.7566639,0.7504317,-0.0656106
701414,0.7561465,0.7499101,-0.0656106
701417,0.7535542,0.7472962,-0.0656106
701419,0.7517344,0.745461,-0.06255726
701422,0.7501709,0.7438844,-0.06255726
701424,0.7501709,0.7438844,-0.06255726
701427,0.7066523,0.7024865,-0.03956468
701429,0.6708556,0.6682253,-0.01978234
701432,0.6708556,0.6682253,-0.01978234
701434,0.6644077,0.6620474,-0.01978234
701437,0.6537194,0.6516207,-0.01978234
701440,0.6537194,0.6516207,-0.01978234
701443,0.6626383,0.660568,0
701445,0.6626383,0.660568,0
701448,0.6693957,0.6673463,-0.01978234
701450,0.6892704,0.6864257,-0.02797646
701453,0.6892704,0.6864257,-0.02797646
701455,0.6960504,0.6929511,-0.03426402
701458,0.6638185,0.6620474,-0.01978234
701460,0.6638185,0.6620474,-0.01978234
701463,0.6138933,0.614212,0
701465,0.6138933,0.614212,0
701468,0.6196041,0.6196041,0.01978234
701470,0.6233823,0.6233823,0
701473,0.6233823,0.6233823,0
701475,0.5977437,0.5983981,0.01978234
701478,0.5570779,0.55778,0.04845664
701480,0.5570779,0.55778,0.04845664
701484,0.5315546,0.5322903,0.0656106
701486,0.5315546,0.5322903,0.0656106
701489,0.509757,0.5101407,0.07661668
701491,0.4905876,0.4897892,0.09065409
701494,0.4905876,0.4897892,0.09065409
701496,0.4588492,0.4558544,0.1119058
701499,0.4467493,0.4423477,0.1219466
701501,0.4467493,0.4423477,0.1219466
701504,0.4356619,0.4302385,0.1282043
701506,0.4356619,0.4302385,0.1282043
701508,0.4201138,0.4121198,0.1412742
701511,0.414487,0.4049353,0.14537
701513,0.414487,0.4049353,0.14537
701516,0.4135417,0.4039677,0.1493534
701518,0.4121198,0.4020255,0.1532334
701521,0.4121198,0.4020255,0.1532334
701523,0.4102162,0.3986039,0.1557664
701527,0.4102162,0.3986039,0.1557664
701529,0.4087828,0.3961419,0.1607126
701532,0.410693,0.3976209,0.1619255
701534,0.410693,0.3976209,0.1619255
701537,0.4111691,0.3976209,0.1631294
701539,0.4454334,0.4379019,0.1412742
701542,0.4454334,0.4379019,0.1412742
701544,0.4996771,0.4969283,0.1101434
701547,0.4996771,0.4969283,0.1101434
701549,0.5024107,0.5000685,0.1083524
701552,0.5043544,0.5024107,0.1101434
701554,0.5043544,0.5024107,0.1101434
701557,0.5059038,0.5039662,0.1101434
701559,0.4913847,0.4877876,0.1235407
701562,0.4913847,0.4877876,0.1235407
701564,0.4849715,0.4792896,0.1312212
701568,0.4849715,0.4792896,0.1312212
701570,0.4784724,0.4722982,0.1370561
701573,0.4735395,0.4660423,0.1426525
701575,0.4735395,0.4660423,0.1426525
701578,0.5028,0.4981082,0.1251145
701580,0.5028,0.4981082,0.1251145
701583,0.5289715,0.5260038,0.1119058
701585,0.530449,0.5274898,0.1119058
701588,0.530449,0.5274898,0.1119058
701590,0.5311863,0.5286014,0.1119058
701593,0.5230194,0.5192646,0.1170339
701595,0.5162413,0.5112901,0.1235407
701598,0.5417637,0.5388666,0.1083524
701600,0.5417637,0.5388666,0.1083524
701603,0.563365,0.5619739,0.09487279
701605,0.5821548,0.5811456,0.08392937
701608,0.5821548,0.5811456,0.08392937
701611,0.633656,0.6339648,0.04845664
701614,0.6540186,0.6543178,0.03426402
701616,0.6540186,0.6543178,0.03426402
701619,0.6385778,0.6391903,0.04845664
701621,0.6385778,0.6391903,0.04845664
701624,0.6394964,0.6398023,0.04423466
701626,0.6507192,0.6513204,0.03956468
701629,0.6507192,0.6513204,0.03956468
701631,0.660568,0.6611602,0.03426402
701634,0.6943616,0.6946434,0.01978234
701636,0.6943616,0.6946434,0.01978234
701638,0.7083117,0.708588,0
701641,0.7083117,0.708588,0
701643,0.7230757,0.7230757,0
701646,0.7480813,0.7472962,0
701648,0.7480813,0.7472962,0
701651,0.7582139,0.7569224,-0.01978234
701654,0.7677034,0.7659171,-0.03426402
701657,0.7677034,0.7659171,-0.03426402
701659,0.7798419,0.7775803,-0.03956468
701662,0.7798419,0.7775803,-0.03956468
701664,0.7858408,0.7835966,-0.03956468
701667,0.7888232,0.7863387,-0.04423466
701669,0.7888232,0.7863387,-0.04423466
701672,0.7922885,0.7898148,-0.04423466
701674,0.7974581,0.7947544,-0.04845664
701677,0.7974581,0.7947544,-0.04845664
701679,0.8003972,0.7977034,-0.04845664
701682,0.8003972,0.7977034,-0.04845664
701684,0.8028382,0.7996635,-0.04845664
701687,0.8084246,0.8055148,-0.04845664
701689,0.8084246,0.8055148,-0.04845664
701692,0.8079404,0.8052719,-0.04845664
701694,0.8084246,0.8052719,-0.04845664
701698,0.8084246,0.8052719,-0.04845664
701700,0.8052719,0.8023506,-0.04845664
701703,0.8052719,0.8023506,-0.04845664
701705,0.8052719,0.8016186,-0.04423466
701708,0.7666831,0.7651502,-0.01978234
701710,0.7666831,0.7651502,-0.01978234
701713,0.7356848,0.7351527,0
701715,0.7356848,0.7351527,0
701718,0.6564078,0.6570037,0.03956468
701720,0.6274496,0.6274496,0.05934703
701723,0.6274496,0.6274496,0.05934703
701725,0.5977437,0.5977437,0.07661668
701728,0.5539077,0.5514293,0.1046783
701730,0.5539077,0.5514293,0.1046783
701733,0.5355885,0.5315546,0.1170339
701735,0.5355885,0.5315546,0.1170339
701739,0.5203939,0.5151029,0.1282043
701741,0.5070629,0.5008504,0.1356209
701744,0.5070629,0.5008504,0.1356209
701746,0.4865827,0.4776538,0.1493534
701749,0.4784724,0.4689721,0.1532334
701751,0.4784724,0.4689721,0.1532334
701754,0.4718838,0.4605518,0.1594904
701756,0.4718838,0.4605518,0.1594904
701759,0.4652019,0.4532716,0.1631294
701761,0.456712,0.4432315,0.1678588
701764,0.456712,0.4432315,0.1678588
701766,0.453703,0.4396856,0.1701742
701769,0.450674,0.4361108,0.1713202
701771,0.450674,0.4361108,0.1713202
701773,0.4471871,0.4329587,0.1724585
701776,0.4471871,0.4329587,0.1724585
701778,0.4454334,0.4297835,0.174713
701782,0.4445539,0.4288719,0.1758294
701784,0.4445539,0.4288719,0.1758294
701787,0.4436728,0.427501,0.1769387
701789,0.4419051,0.4256662,0.1780411
701792,0.4419051,0.4256662,0.1780411
701794,0.4410186,0.4242849,0.1802258
701797,0.4410186,0.4242849,0.1802258
701799,0.4423477,0.4256662,0.1791368
701802,0.4432315,0.4265846,0.1791368
701804,0.4432315,0.4265846,0.1791368
701807,0.4454334,0.4284154,0.1802258
701809,0.4467493,0.4297835,0.1802258
701812,0.4467493,0.4297835,0.1802258
701814,0.4519747,0.4356619,0.1780411
701817,0.4519747,0.4356619,0.1780411
701819,0.4558544,0.4396856,0.1780411
701822,0.4579955,0.4427898,0.1769387
701825,0.4579955,0.4427898,0.1769387
701828,0.4618246,0.4467493,0.174713
701830,0.4652019,0.4502396,0.1735894
701833,0.4652019,0.4502396,0.1735894
701835,0.4677188,0.4532716,0.1724585
701838,0.4677188,0.4532716,0.1724585
701840,0.4693892,0.454995,0.1724585
701843,0.4706381,0.4562834,0.1713202
701845,0.4706381,0.4562834,0.1713202
701848,0.4714689,0.4571402,0.1713202
701850,0.4714689,0.4571402,0.1713202
701853,0.4710537,0.4579955,0.1690205
701855,0.4714689,0.4579955,0.1690205
701858,0.4714689,0.4579955,0.1690205
701860,0.4718838,0.4584226,0.1701742
701863,0.4731261,0.4592754,0.1701742
701865,0.4731261,0.4592754,0.1701742
701869,0.4735395,0.4597013,0.1690205
701871,0.4735395,0.4597013,0.1690205
701874,0.4735395,0.4601268,0.1701742
701876,0.4731261,0.4592754,0.1678588
701879,0.4731261,0.4592754,0.1678588
701881,0.4722982,0.4592754,0.166689
701884,0.4743652,0.4618246,0.165511
701886,0.4743652,0.4618246,0.165511
701889,0.4756011,0.4626713,0.166689
701891,0.4756011,0.4626713,0.166689
701894,0.4747775,0.463094,0.1631294
701896,0.4747775,0.4622481,0.1631294
701899,0.4747775,0.4622481,0.1631294
701901,0.4805128,0.4673002,0.165511
701903,0.4837596,0.4714689,0.165511
701906,0.4837596,0.4714689,0.165511
701908,0.4865827,0.4747775,0.1631294
701912,0.4865827,0.4747775,0.1631294
701914,0.4889896,0.4768338,0.1631294
701917,0.4981082,0.4861804,0.165511
701919,0.4981082,0.4861804,0.165511
701922,0.5016313,0.4889896,0.165511
701924,0.5020211,0.4897892,0.166689
701927,0.5020211,0.4897892,0.166689
701929,0.5024107,0.4901886,0.166689
701932,0.5024107,0.4901886,0.166689
701934,0.5028,0.4897892,0.165511
701937,0.5024107,0.4901886,0.166689
701939,0.5024107,0.4901886,0.166689
701942,0.5020211,0.4897892,0.165511
701944,0.5016313,0.4897892,0.165511
701947,0.5016313,0.4897892,0.165511
701949,0.5020211,0.4897892,0.1643245
701953,0.5020211,0.4897892,0.1643245
701955,0.5024107,0.4905876,0.1643245
701958,0.5062904,0.4941643,0.1643245
701960,0.5062904,0.4941643,0.1643245
701963,0.5101407,0.4973219,0.165511
701965,0.5166202,0.5039662,0.1678588
701968,0.5166202,0.5039662,0.1678588
701970,0.5245137,0.5120549,0.1690205
701973,0.5245137,0.5120549,0.1690205
701975,0.5289715,0.5158621,0.1713202
701978,0.5319225,0.5188877,0.1701742
701980,0.5319225,0.5188877,0.1701742
701983,0.5348573,0.5211454,0.1735894
701985,0.5348573,0.5211454,0.1735894
701988,0.5385033,0.5256317,0.1735894
701990,0.5392296,0.5263757,0.1735894
701993,0.5392296,0.5263757,0.1735894
701996,0.5399548,0.5271187,0.1735894
701999,0.5414024,0.5278606,0.1758294
702001,0.5414024,0.5278606,0.1758294
702004,0.5428462,0.5293413,0.1758294
702006,0.5428462,0.5293413,0.1758294
702009,0.5432066,0.5297108,0.1758294
702011,0.5439265,0.5297108,0.1769387
702014,0.5439265,0.5297108,0.1769387
702016,0.5442861,0.53008,0.174713
702019,0.5446455,0.5311863,0.1735894
702021,0.5446455,0.5311863,0.1735894
702024,0.5446455,0.5308178,0.174713
702026,0.5446455,0.5308178,0.174713
702029,0.5450047,0.5311863,0.1735894
702031,0.5435666,0.53008,0.174713
702033,0.5435666,0.53008,0.174713
702036,0.5424856,0.5289715,0.1758294
702039,0.5406791,0.5274898,0.174713
702042,0.5406791,0.5274898,0.174713
702044,0.5395923,0.5256317,0.1758294
702047,0.5395923,0.5256317,0.1758294
702049,0.5395923,0.5263757,0.1758294
702052,0.5403171,0.5271187,0.1758294
702054,0.5403171,0.5271187,0.1758294
702057,0.5414024,0.5278606,0.1758294
702059,0.575053,0.5657911,0.1532334
702062,0.575053,0.5657911,0.1532334
702064,0.6437659,0.6404136,0.1083524
702067,0.6437659,0.6404136,0.1083524
702069,0.6781085,0.6763749,0.08846933
702072,0.7083117,0.7069291,0.07132626
702074,0.7083117,0.7069291,0.07132626
702077,0.7002546,0.6988559,0.07401875
702080,0.6946434,0.6932335,0.07912937
702083,0.6946434,0.6932335,0.07912937
702085,0.6769533,0.6749268,0.08846933
702088,0.6769533,0.6749268,0.08846933
702090,0.640108,0.6370438,0.1083524
702093,0.6214961,0.6177064,0.1170339
702095,0.6214961,0.6177064,0.1170339
702098,0.6065179,0.6019843,0.1235407
702100,0.5944612,0.5888388,0.1312212
702103,0.5848376,0.5784457,0.1370561
702105,0.5712977,0.564406,0.1412742
702108,0.5712977,0.564406,0.1412742
702110,0.5609285,0.5528469,0.14537
702113,0.5521386,0.5439265,0.1480375
702115,0.5521386,0.5439265,0.1480375
702118,0.5355885,0.5260038,0.1545051
702120,0.5355885,0.5260038,0.1545051
702124,0.5289715,0.5196414,0.1557664
702126,0.5233933,0.5128186,0.1582588
702129,0.5233933,0.5128186,0.1582588
702131,0.518133,0.5078341,0.1582588
702134,0.5158621,0.5047422,0.1619255
702136,0.5158621,0.5047422,0.1619255
702139,0.5151029,0.5039662,0.1631294
702141,0.5151029,0.5039662,0.1631294
702144,0.5173771,0.5059038,0.165511
702146,0.5192646,0.5074486,0.165511
702149,0.5192646,0.5074486,0.165511
702151,0.5237671,0.5116726,0.166689
702154,0.530449,0.518133,0.1690205
702156,0.530449,0.518133,0.1690205
702159,0.533392,0.5207698,0.1701742
702161,0.533392,0.5207698,0.1701742
702163,0.5352231,0.5226451,0.1713202
702167,0.5348573,0.5222706,0.1713202
702169,0.5348573,0.5222706,0.1713202
702172,0.5337587,0.5211454,0.1701742
702174,0.5359538,0.5233933,0.1713202
702177,0.5359538,0.5233933,0.1713202
702179,0.5374122,0.5248867,0.1724585
702182,0.5374122,0.5248867,0.1724585
702184,0.5406791,0.5278606,0.1724585
702187,0.5435666,0.53008,0.1735894
702189,0.5435666,0.53008,0.1735894
702192,0.5478694,0.5352231,0.1735894
702194,0.5496522,0.5370479,0.174713
702197,0.5496522,0.5370479,0.174713
702199,0.5532007,0.5395923,0.174713
702202,0.5532007,0.5395923,0.174713
702204,0.555319,0.5421248,0.1758294
702208,0.5570779,0.5446455,0.1735894
702210,0.5570779,0.5446455,0.1735894
702213,0.5602303,0.5475121,0.1735894
702215,0.5619739,0.5485832,0.174713
702218,0.5619739,0.5485832,0.174713
702220,0.5630175,0.5500081,0.1758294
702223,0.5630175,0.5500081,0.1758294
702225,0.563365,0.5500081,0.174713
702228,0.563365,0.5500081,0.174713
702230,0.563365,0.5500081,0.174713
702233,0.563365,0.5500081,0.174713
702235,0.5581307,0.5453635,0.1735894
702238,0.5581307,0.5453635,0.1735894
702240,0.5510744,0.5385033,0.1724585
702243,0.5510744,0.5385033,0.1724585
702245,0.5453635,0.533025,0.1713202
702248,0.5432066,0.5308178,0.1701742
702251,0.5432066,0.5308178,0.1701742
702254,0.5410409,0.5293413,0.1690205
702256,0.5410409,0.5293413,0.1690205
702259,0.5403171,0.5274898,0.1690205
702261,0.5395923,0.5271187,0.1690205
702264,0.5395923,0.5271187,0.1690205
702266,0.5399548,0.5271187,0.1690205
702269,0.5399548,0.5278606,0.1701742
702271,0.5399548,0.5278606,0.1701742
702274,0.5730078,0.5647526,0.1480375
702276,0.5730078,0.5647526,0.1480375
702279,0.6010084,0.5951191,0.1297215
702281,0.6252628,0.6211812,0.1153499
702284,0.6252628,0.6211812,0.1153499
702286,0.6262009,0.6221254,0.1153499
702289,0.6189722,0.6145305,0.1203313
702291,0.6189722,0.6145305,0.1203313
702294,0.6129363,0.6081289,0.1235407
702297,0.6129363,0.6081289,0.1235407
702299,0.6049027,0.5990517,0.1297215
702302,0.5990517,0.5924829,0.1341704
702304,0.5990517,0.5924829,0.1341704
702307,0.5941319,0.5875081,0.1384764
702309,0.5888388,0.5811456,0.1412742
702312,0.5888388,0.5811456,0.1412742
702314,0.5845029,0.5764125,0.1467098
702317,0.5845029,0.5764125,0.1467098
702319,0.5801346,0.5716401,0.1480375
702322,0.577091,0.5682068,0.1519511
702324,0.577091,0.5682068,0.1519511
702327,0.5716401,0.5619739,0.1570175
702329,0.5706123,0.5605795,0.1594904
702332,0.5706123,0.5605795,0.1594904
702334,0.5695826,0.5591815,0.1607126
702338,0.5695826,0.5591815,0.1607126
702340,0.569239,0.5591815,0.1607126
702343,0.5657911,0.555319,0.1607126
702345,0.5657911,0.555319,0.1607126
702348,0.5616257,0.5500081,0.1631294
702350,0.5595313,0.5482264,0.1631294
702353,0.5595313,0.5482264,0.1631294
702355,0.5588315,0.5475121,0.1643245
702358,0.5588315,0.5475121,0.1643245
702360,0.5588315,0.5475121,0.165511
702363,0.5588315,0.5475121,0.1643245
702365,0.5588315,0.5475121,0.1643245
702368,0.5570779,0.5457222,0.165511
702370,0.5567266,0.5453635,0.165511
702373,0.5567266,0.5453635,0.165511
702375,0.5510744,0.5399548,0.165511
702379,0.5510744,0.5399548,0.165511
702381,0.5467969,0.5359538,0.1643245
702384,0.5410409,0.5297108,0.1643245
702386,0.5410409,0.5297108,0.1643245
702389,0.533392,0.5215207,0.1643245
702391,0.533392,0.5215207,0.1643245
702394,0.5267473,0.5151029,0.1643245
702396,0.5218958,0.509757,0.1643245
702399,0.5218958,0.509757,0.1643245
702401,0.5166202,0.5043544,0.165511
702404,0.5089886,0.4973219,0.1643245
702406,0.5089886,0.4973219,0.1643245
702409,0.5051297,0.4933717,0.165511
702411,0.5051297,0.4933717,0.165511
702414,0.5016313,0.4893896,0.165511
702416,0.4985009,0.4857778,0.166689
702419,0.4985009,0.4857778,0.166689
702422,0.4945601,0.4809199,0.1678588
702424,0.4917827,0.4788812,0.1678588
702427,0.4917827,0.4788812,0.1678588
702429,0.4909863,0.4776538,0.1701742
702432,0.4909863,0.4776538,0.1701742
702434,0.4897892,0.477244,0.1678588
702437,0.4893896,0.4764233,0.1678588
702439,0.4893896,0.4764233,0.1678588
702442,0.4889896,0.4760123,0.1690205
702444,0.4893896,0.4756011,0.1713202
702447,0.4893896,0.4756011,0.1713202
702449,0.4861804,0.4731261,0.1701742
702452,0.4861804,0.4731261,0.1701742
702454,0.4833549,0.4693892,0.1735894
702457,0.4821389,0.4677188,0.174713
702459,0.4821389,0.4677188,0.174713
702462,0.4813265,0.4668813,0.1735894
702465,0.4788812,0.463094,0.1758294
702468,0.4788812,0.463094,0.1758294
702470,0.4780633,0.4626713,0.1769387
702473,0.4780633,0.4626713,0.1769387
702475,0.4784724,0.4635163,0.1758294
702478,0.4796977,0.4643598,0.1769387
702480,0.4796977,0.4643598,0.1769387
702483,0.4788812,0.4626713,0.1791368
702485,0.4768338,0.4618246,0.1791368
702488,0.4768338,0.4618246,0.1791368
702490,0.4747775,0.4584226,0.1780411
702493,0.4747775,0.4584226,0.1780411
702495,0.4727124,0.456712,0.1780411
702498,0.4706381,0.4541341,0.1791368
702500,0.4706381,0.4541341,0.1791368
702503,0.4698059,0.4532716,0.1780411
702505,0.4702222,0.4541341,0.1780411
702509,0.4702222,0.4541341,0.1780411
702511,0.4706381,0.454995,0.1780411
702514,0.4706381,0.454995,0.1780411
702516,0.4706381,0.4554249,0.1780411
702519,0.4739525,0.4584226,0.1780411
702521,0.4739525,0.4584226,0.1780411
702524,0.4760123,0.4605518,0.1758294
702526,0.4760123,0.4605518,0.1758294
702529,0.4776538,0.4622481,0.1769387
702531,0.4784724,0.4635163,0.1758294
702534,0.4784724,0.4635163,0.1758294
702536,0.4792896,0.4643598,0.1758294
702539,0.4805128,0.4652019,0.174713
702541,0.4805128,0.4652019,0.174713
702544,0.4805128,0.4656223,0.174713
702546,0.4805128,0.4656223,0.174713
702550,0.4817329,0.4668813,0.1758294
702552,0.4841639,0.4693892,0.174713
702554,0.4841639,0.4693892,0.174713
702557,0.4849715,0.4702222,0.1735894
702559,0.4849715,0.4710537,0.1735894
702562,0.4849715,0.4710537,0.1735894
702564,0.4857778,0.4718838,0.1724585
702567,0.4857778,0.4718838,0.1724585
702569,0.5542608,0.5482264,0.1341704
702572,0.5640592,0.5581307,0.132704
702574,0.5640592,0.5581307,0.132704
702577,0.5723243,0.5668277,0.1297215
702579,0.5801346,0.5747126,0.1282043
702582,0.5801346,0.5747126,0.1282043
702584,0.6339648,0.6318005,0.09278741
702587,0.6339648,0.6318005,0.09278741
702589,0.6558113,0.6546168,0.07661668
702593,0.6471007,0.645587,0.08156469
702595,0.6471007,0.645587,0.08156469
702598,0.6410245,0.6391903,0.08622923
702600,0.6084505,0.6055493,0.1027921
702603,0.6084505,0.6055493,0.1027921
702605,0.5970887,0.5941319,0.1083524
702608,0.5970887,0.5941319,0.1083524
702610,0.5828267,0.5787839,0.1170339
702613,0.5712977,0.5668277,0.1235407
702615,0.5712977,0.5668277,0.1235407
702618,0.5471546,0.5410409,0.1356209
702620,0.5392296,0.5319225,0.1412742
702623,0.5392296,0.5319225,0.1412742
702625,0.5311863,0.5230194,0.14537
702628,0.5311863,0.5230194,0.14537
702630,0.5245137,0.5162413,0.1480375
702633,0.5200178,0.5109072,0.1519511
702636,0.5200178,0.5109072,0.1519511
702639,0.5166202,0.5066768,0.1545051
702641,0.5128186,0.5024107,0.1582588
702644,0.5128186,0.5024107,0.1582588
702646,0.5101407,0.4996771,0.1607126
702649,0.5101407,0.4996771,0.1607126
702651,0.5066768,0.4953507,0.1619255
702654,0.5059038,0.4941643,0.1631294
702656,0.5059038,0.4941643,0.1631294
702659,0.5055169,0.4937682,0.1643245
702661,0.5059038,0.4933717,0.1631294
702664,0.5059038,0.4933717,0.1631294
702666,0.5082192,0.4965344,0.1643245
702669,0.5082192,0.4965344,0.1643245
702671,0.5109072,0.4988932,0.165511
702674,0.509757,0.4973219,0.165511
702676,0.509757,0.4973219,0.165511
702680,0.5093729,0.4973219,0.1643245
702682,0.5093729,0.4973219,0.1643245
702684,0.508604,0.4969283,0.165511
702687,0.5089886,0.4961402,0.1643245
702689,0.5089886,0.4961402,0.1643245
702692,0.5105241,0.4981082,0.165511
702694,0.5120549,0.4992853,0.165511
702697,0.5120549,0.4992853,0.165511
702699,0.5135812,0.501241,0.165511
702702,0.5135812,0.501241,0.165511
702704,0.5132,0.5016313,0.165511
702707,0.5158621,0.5035778,0.165511
702709,0.5158621,0.5035778,0.165511
702712,0.518133,0.5059038,0.166689
702714,0.5230194,0.5105241,0.1678588
702717,0.5230194,0.5105241,0.1678588
702720,0.5256317,0.5128186,0.1690205
702723,0.5256317,0.5128186,0.1690205
702725,0.5274898,0.5147229,0.1690205
702728,0.5322903,0.5188877,0.1724585
702730,0.5322903,0.5188877,0.1724585
702733,0.5293413,0.5154827,0.1735894
702735,0.5260038,0.5128186,0.1735894
702738,0.5260038,0.5128186,0.1735894
702740,0.5245137,0.5101407,0.1735894
702743,0.5245137,0.5101407,0.1735894
702745,0.5200178,0.5062904,0.1735894
702748,0.5135812,0.5000685,0.1735894
702750,0.5135812,0.5000685,0.1735894
702753,0.5109072,0.4977152,0.1724585
702755,0.5078341,0.4941643,0.1735894
702758,0.5078341,0.4941643,0.1735894
702760,0.5055169,0.4913847,0.1735894
702764,0.5055169,0.4913847,0.1735894
702766,0.5031891,0.4889896,0.1735894
702769,0.4996771,0.4861804,0.1735894
702771,0.4996771,0.4861804,0.1735894
702774,0.4985009,0.4837596,0.1724585
702776,0.4965344,0.4825446,0.1735894
702779,0.4965344,0.4825446,0.1735894
702781,0.4941643,0.4805128,0.1724585
702784,0.4941643,0.4805128,0.1724585
702786,0.4937682,0.4792896,0.1735894
702789,0.4929749,0.4788812,0.1724585
702791,0.4929749,0.4788812,0.1724585
702794,0.4909863,0.477244,0.1724585
702796,0.4905876,0.4768338,0.1724585
702799,0.4905876,0.4768338,0.1724585
702801,0.4913847,0.4780633,0.1701742
702804,0.4913847,0.4780633,0.1701742
702807,0.4917827,0.4784724,0.1713202
702810,0.4925778,0.4788812,0.1701742
702812,0.4929749,0.4792896,0.1690205
702814,0.4933717,0.4805128,0.1701742
702817,0.4933717,0.4805128,0.1701742
702819,0.4937682,0.4809199,0.1690205
702822,0.4941643,0.4813265,0.1678588
702824,0.4941643,0.4813265,0.1678588
702827,0.4949555,0.4813265,0.1678588
702829,0.4949555,0.4813265,0.1678588
702832,0.4949555,0.4813265,0.1678588
702834,0.5004597,0.4873863,0.1701742
702837,0.5004597,0.4873863,0.1701742
702839,0.5028,0.4893896,0.1701742
702842,0.5616257,0.556375,0.1297215
702844,0.5616257,0.556375,0.1297215
702848,0.5851721,0.5814822,0.1153499
702850,0.5928131,0.5888388,0.1153499
702853,0.5928131,0.5888388,0.1153499
702855,0.5961047,0.5921526,0.1136409
702858,0.5961047,0.5921526,0.1136409
702860,0.5858405,0.5811456,0.1203313
702863,0.5664824,0.5605795,0.1312212
702865,0.5664824,0.5605795,0.1312212
702868,0.55778,0.5510744,0.1341704
702870,0.5507192,0.5439265,0.1384764
702873,0.5507192,0.5439265,0.1384764
702875,0.6061952,0.6029587,0.1083524
702878,0.6061952,0.6029587,0.1083524
702880,0.628073,0.6258884,0.09691329
702883,0.680413,0.6795497,0.06255726
702885,0.680413,0.6795497,0.06255726
702888,0.7016503,0.7010924,0.04845664
702891,0.6731851,0.6723125,0.06255726
702894,0.6731851,0.6723125,0.06255726
702896,0.6638185,0.6629335,0.0656106
702899,0.6638185,0.6629335,0.0656106
702901,0.687565,0.6872803,0.04845664
702904,0.6977351,0.6974546,0.04423466
702906,0.6977351,0.6974546,0.04423466
702909,0.7135413,0.7132671,0.02797646
702911,0.7281993,0.7273927,0.01978234
702914,0.7407211,0.7399282,0
702916,0.7162784,0.7157319,0.02797646
702919,0.7162784,0.7157319,0.02797646
702921,0.6968932,0.6966124,0.03426402
702924,0.7016503,0.7013714,0.03426402
702926,0.7016503,0.7013714,0.03426402
702929,0.7107937,0.7105184,0.02797646
702931,0.7219925,0.7219925,0.01978234
702935,0.7219925,0.7219925,0.01978234
702937,0.7420408,0.741777,0
702940,0.7420408,0.741777,0
702942,0.7129927,0.7129927,0.01978234
702944,0.6708556,0.6711472,0.04423466
702947,0.6708556,0.6711472,0.04423466
702949,0.6783969,0.6786853,0.03956468
702952,0.6783969,0.6786853,0.03956468
702954,0.6849989,0.6855699,0.03956468
702957,0.6647022,0.6649964,0.04845664
702959,0.6647022,0.6649964,0.04845664
702962,0.6434618,0.6437659,0.05934703
702964,0.6145305,0.614212,0.07661668
702967,0.6145305,0.614212,0.07661668
702969,0.5719823,0.5702693,0.1008706
702972,0.5719823,0.5702693,0.1008706
702974,0.5549665,0.5521386,0.1136409
702978,0.5406791,0.5366834,0.1219466
702980,0.5406791,0.5366834,0.1219466
702983,0.5166202,0.5101407,0.1384764
702985,0.5062904,0.4985009,0.14537
702988,0.5062904,0.4985009,0.14537
702990,0.4917827,0.4817329,0.1570175
702993,0.4917827,0.4817329,0.1570175
702995,0.4861804,0.4756011,0.1619255
702998,0.4821389,0.4698059,0.166689
703000,0.4792896,0.466462,0.1701742
703003,0.4764233,0.4626713,0.1713202
703005,0.4743652,0.4601268,0.1735894
703008,0.4743652,0.4601268,0.1735894
703010,0.4706381,0.4554249,0.1769387
703013,0.4706381,0.4554249,0.1769387
703015,0.4718838,0.456712,0.1769387
703019,0.4731261,0.4579955,0.1780411
703021,0.4731261,0.4579955,0.1780411
703024,0.4739525,0.4588492,0.1780411
703026,0.4743652,0.4588492,0.1791368
703029,0.4743652,0.4588492,0.1791368
703031,0.4743652,0.4592754,0.1780411
703034,0.4743652,0.4592754,0.1780411
703036,0.4751895,0.4588492,0.1791368
703039,0.4751895,0.4584226,0.1802258
703041,0.4751895,0.4584226,0.1802258
703044,0.4739525,0.4579955,0.1813082
703046,0.4743652,0.4579955,0.1802258
703049,0.4743652,0.4579955,0.1802258
703051,0.4743652,0.4584226,0.1802258
703054,0.4743652,0.4584226,0.1802258
703056,0.4756011,0.4605518,0.1802258
703059,0.4764233,0.4614008,0.1791368
703062,0.4764233,0.4614008,0.1791368
703065,0.4776538,0.4626713,0.1769387
703067,0.4788812,0.4635163,0.1780411
703070,0.4788812,0.4635163,0.1780411
703072,0.4788812,0.4635163,0.1769387
703075,0.4788812,0.4635163,0.1769387
703077,0.4796977,0.464781,0.174713
703079,0.4796977,0.464781,0.174713
703082,0.4796977,0.464781,0.174713
703084,0.4784724,0.4635163,0.1758294
703087,0.4784724,0.4635163,0.1758294
703089,0.4776538,0.4626713,0.1769387
703092,0.4751895,0.4597013,0.1758294
703094,0.4751895,0.4597013,0.1758294
703097,0.4743652,0.4588492,0.1780411
703099,0.4735395,0.4588492,0.1780411
703102,0.4735395,0.4588492,0.1780411
703105,0.4722982,0.456712,0.1769387
703108,0.4722982,0.456712,0.1769387
703110,0.4714689,0.4562834,0.1769387
703113,0.4702222,0.4554249,0.174713
703115,0.4685547,0.4528397,0.1758294
703118,0.4668813,0.4515415,0.1769387
703120,0.4969283,0.4877876,0.1532334
703123,0.4969283,0.4877876,0.1532334
703125,0.5252593,0.5196414,0.1341704
703128,0.5252593,0.5196414,0.1341704
703130,0.5489398,0.5457222,0.1186941
703133,0.6135744,0.6138933,0.07661668
703135,0.6135744,0.6138933,0.07661668
703138,0.6394964,0.6407191,0.06255726
703140,0.6274496,0.6283845,0.06852804
703143,0.6274496,0.6283845,0.06852804
703145,0.618656,0.6189722,0.07132626
703149,0.618656,0.6189722,0.07132626
703151,0.6333472,0.6342734,0.06255726
703154,0.6467983,0.6480073,0.05233916
703156,0.6467983,0.6480073,0.05233916
703159,0.6286958,0.6299395,0.06255726
703161,0.6032831,0.6042554,0.07132626
703164,0.6032831,0.6042554,0.07132626
703166,0.5811456,0.5814822,0.08392937
703169,0.5811456,0.5814822,0.08392937
703171,0.563365,0.5630175,0.09487279
703174,0.5311863,0.5289715,0.1136409
703176,0.5311863,0.5289715,0.1136409
703179,0.5196414,0.5166202,0.1219466
703181,0.4992853,0.4941643,0.1356209
703184,0.4992853,0.4941643,0.1356209
703186,0.4917827,0.4857778,0.1384764
703190,0.4917827,0.4857778,0.1384764
703192,0.4841639,0.477244,0.1440177
703195,0.4722982,0.4635163,0.1519511
703197,0.4722982,0.4635163,0.1519511
703200,0.4685547,0.4597013,0.1557664
703202,0.463094,0.4528397,0.1594904
703205,0.463094,0.4528397,0.1594904
703207,0.4601268,0.4489339,0.1619255
703209,0.4601268,0.4489339,0.1619255
703212,0.4601268,0.4489339,0.1619255
703214,0.4601268,0.4489339,0.1619255
703217,0.4601268,0.4489339,0.1619255
703219,0.4571402,0.4463111,0.1631294
703222,0.4571402,0.4463111,0.1631294
703224,0.4579955,0.4467493,0.165511
703227,0.4579955,0.4458725,0.165511
703229,0.4579955,0.4458725,0.165511
703233,0.4597013,0.4476244,0.166689
703235,0.4618246,0.4502396,0.166689
703238,0.4618246,0.4502396,0.166689
703240,0.4618246,0.4498048,0.166689
703243,0.4618246,0.4498048,0.166689
703245,0.4618246,0.4498048,0.166689
703248,0.4614008,0.4493696,0.1678588
703250,0.4614008,0.4493696,0.1678588
703253,0.4605518,0.4484978,0.166689
703255,0.4597013,0.4476244,0.1678588
703258,0.4597013,0.4476244,0.1678588
703260,0.4588492,0.4463111,0.1678588
703263,0.4588492,0.4463111,0.1678588
703265,0.4592754,0.4467493,0.1678588
703268,0.4597013,0.4471871,0.166689
703270,0.4597013,0.4471871,0.166689
703273,0.4601268,0.4476244,0.1678588
703276,0.4562834,0.4436728,0.1678588
703279,0.4562834,0.4436728,0.1678588
703281,0.454995,0.4419051,0.1678588
703284,0.454995,0.4419051,0.1678588
703286,0.5132,0.509757,0.1219466
703289,0.5521386,0.5517841,0.09691329
703291,0.5521386,0.5517841,0.09691329
703294,0.614212,0.6161205,0.05595291
703296,0.645587,0.6480073,0.03956468
703299,0.645587,0.6480073,0.03956468
703301,0.6728944,0.6752167,0.01978234
703304,0.6728944,0.6752167,0.01978234
703306,0.7170975,0.7184606,0
703309,0.6954879,0.6974546,0
703311,0.6954879,0.6974546,0
703314,0.6792617,0.680988,0.01978234
703316,0.6906884,0.6923862,0.01978234
703320,0.6906884,0.6923862,0.01978234
703322,0.6966124,0.6982958,0.01978234
703325,0.6966124,0.6982958,0.01978234
703327,0.6723125,0.6743467,0.03426402
703330,0.6268256,0.628073,0.06255726
703332,0.6268256,0.628073,0.06255726
703335,0.6055493,0.6061952,0.08156469
703337,0.5885065,0.5881739,0.09278741
703339,0.5885065,0.5881739,0.09278741
703342,0.5560232,0.5532007,0.1153499
703344,0.5560232,0.5532007,0.1153499
703347,0.5442861,0.5403171,0.1251145
703349,0.533025,0.5282311,0.132704
703352,0.533025,0.5282311,0.132704
703354,0.5166202,0.509757,0.14537
703357,0.5166202,0.509757,0.14537
703360,0.5105241,0.5024107,0.1506579
703363,0.5055169,0.4961402,0.1545051
703365,0.5055169,0.4961402,0.1545051
703368,0.5000685,0.4897892,0.1607126
703370,0.4977152,0.4869847,0.1631294
703373,0.4977152,0.4869847,0.1631294
703375,0.4917827,0.4805128,0.166689
703378,0.4917827,0.4805128,0.166689
703380,0.4897892,0.4776538,0.166689
703383,0.4893896,0.4768338,0.1690205
703385,0.4893896,0.4768338,0.1690205
703388,0.4889896,0.4764233,0.1690205
703390,0.4869847,0.4739525,0.1690205
703393,0.4869847,0.4739525,0.1690205
703395,0.4833549,0.4698059,0.1724585
703398,0.4833549,0.4698059,0.1724585
703400,0.4817329,0.4677188,0.1735894
703404,0.4792896,0.4643598,0.1769387
703406,0.4792896,0.4643598,0.1769387
703409,0.477244,0.4618246,0.1769387
703411,0.4751895,0.4605518,0.1769387
703414,0.4751895,0.4605518,0.1769387
703416,0.4698059,0.4545648,0.1791368
703419,0.4698059,0.4545648,0.1791368
703421,0.466462,0.4515415,0.1769387
703424,0.4609765,0.4458725,0.1780411
703426,0.4609765,0.4458725,0.1780411
703429,0.4545648,0.4379019,0.1813082
703431,0.4829499,0.4731261,0.1557664
703434,0.4829499,0.4731261,0.1557664
703436,0.530449,0.5271187,0.1203313
703439,0.530449,0.5271187,0.1203313
703441,0.5657911,0.564406,0.09487279
703444,0.5964329,0.5967609,0.07661668
703447,0.5964329,0.5967609,0.07661668
703450,0.6116581,0.612617,0.05934703
703452,0.6032831,0.6042554,0.06852804
703455,0.6032831,0.6042554,0.06852804
703457,0.5970887,0.5977437,0.06852804
703460,0.5970887,0.5977437,0.06852804
703462,0.6271377,0.6286958,0.04845664
703465,0.6464956,0.6480073,0.02797646
703467,0.6464956,0.6480073,0.02797646
703469,0.6635236,0.6649964,0.01978234
703472,0.6957693,0.6966124,0
703474,0.6957693,0.6966124,0
703477,0.7105184,0.7107937,0
703479,0.7105184,0.7107937,0
703482,0.7233464,0.7233464,0
703484,0.6702721,0.6717301,0
703488,0.6702721,0.6717301,0
703490,0.6321102,0.633656,0.03426402
703493,0.6321102,0.633656,0.03426402
703495,0.6013339,0.6023093,0.05233916
703498,0.5868416,0.5881739,0.05934703
703500,0.5868416,0.5881739,0.05934703
703503,0.5961047,0.5974163,0.05233916
703505,0.6039315,0.605226,0.04845664
703508,0.6039315,0.605226,0.04845664
703510,0.5699261,0.5706123,0.0656106
703513,0.5699261,0.5706123,0.0656106
703515,0.5453635,0.5453635,0.08156469
703518,0.5089886,0.5074486,0.1027921
703520,0.5089886,0.5074486,0.1027921
703523,0.4941643,0.4913847,0.1119058
703525,0.4813265,0.4776538,0.1219466
703528,0.4813265,0.4776538,0.1219466
703531,0.4706381,0.4660423,0.1266688
703534,0.4706381,0.4660423,0.1266688
703536,0.453703,0.4463111,0.1412742
703539,0.4476244,0.4396856,0.14537
703541,0.4476244,0.4396856,0.14537
703544,0.4423477,0.4334104,0.1493534
703546,0.4352126,0.4247459,0.1557664
703549,0.4352126,0.4247459,0.1557664
703551,0.4320539,0.4210443,0.1582588
703554,0.4320539,0.4210443,0.1582588
703556,0.429328,0.4177785,0.1619255
703559,0.4302385,0.4177785,0.1643245
703561,0.4302385,0.4177785,0.1643245
703564,0.4297835,0.4173099,0.166689
703566,0.4885893,0.4841639,0.1266688
703569,0.4885893,0.4841639,0.1266688
703571,0.5116726,0.5089886,0.1119058
703575,0.5116726,0.5089886,0.1119058
703577,0.5116726,0.5089886,0.1119058
703580,0.5116726,0.5089886,0.1119058
703582,0.5116726,0.5089886,0.1119058
703585,0.555319,0.555319,0.08392937
703587,0.5934729,0.5944612,0.06255726
703590,0.5934729,0.5944612,0.06255726
703592,0.591822,0.5928131,0.06255726
703595,0.591822,0.5928131,0.06255726
703597,0.5911604,0.5921526,0.06255726
703599,0.6122975,0.6132555,0.05233916
703602,0.6122975,0.6132555,0.05233916
703604,0.6305605,0.6314908,0.03956468
703607,0.6685182,0.6691033,0.01978234
703609,0.6685182,0.6691033,0.01978234
703612,0.687565,0.688134,0
703614,0.687565,0.688134,0
703618,0.7058211,0.7060983,0
703620,0.7354187,0.7348864,-0.01978234
703623,0.7354187,0.7348864,-0.01978234
703625,0.7480813,0.7470343,-0.02797646
703628,0.7480813,0.7470343,-0.02797646
703630,0.7592455,0.7579558,-0.02797646
703633,0.7712635,0.7692311,-0.03426402
703635,0.7712635,0.7692311,-0.03426402
703638,0.776825,0.7748073,-0.03956468
703640,0.7404569,0.7396637,-0.01978234
703643,0.7404569,0.7396637,-0.01978234
703645,0.711069,0.711069,0
703648,0.711069,0.711069,0
703650,0.7074825,0.7080355,0
703653,0.7063754,0.7069291,0
703655,0.7063754,0.7069291,0
703659,0.7138155,0.7143636,0
703661,0.7255072,0.7255072,-0.01978234
703664,0.7255072,0.7255072,-0.01978234
703666,0.7338206,0.7335538,0
703669,0.7338206,0.7335538,0
703671,0.7407211,0.7401926,-0.01978234
703674,0.7483428,0.747558,-0.02797646
703676,0.7483428,0.747558,-0.02797646
703679,0.7597608,0.7587299,-0.03426402
703681,0.7661725,0.7646385,-0.03956468
703684,0.7661725,0.7646385,-0.03956468
703686,0.7712635,0.7697397,-0.03956468
703689,0.7712635,0.7697397,-0.03956468
703691,0.7372789,0.7367479,-0.01978234
703694,0.7058211,0.7063754,0
703696,0.7058211,0.7063754,0
703699,0.7038778,0.7047113,0
703702,0.7022079,0.7027649,0
703705,0.7022079,0.7027649,0
703707,0.6685182,0.6691033,0.01978234
703710,0.6685182,0.6691033,0.01978234
703712,0.6413296,0.6428534,0.03426402
703715,0.6467983,0.6480073,0.03426402
703717,0.6467983,0.6480073,0.03426402
703720,0.6537194,0.6546168,0.02797646
703722,0.6299395,0.6308707,0.03956468
703725,0.6299395,0.6308707,0.03956468
703727,0.5928131,0.5938025,0.0656106
703729,0.5928131,0.5938025,0.0656106
703732,0.6081289,0.608772,0.05233916
703734,0.6199199,0.6208661,0.04845664
703737,0.6199199,0.6208661,0.04845664
703739,0.6106976,0.6116581,0.05595291
703742,0.5951191,0.5954478,0.0656106
703745,0.5951191,0.5954478,0.0656106
703748,0.5814822,0.5821548,0.07401875
703750,0.5814822,0.5821548,0.07401875
703753,0.5417637,0.5403171,0.09891172
703755,0.5260038,0.5233933,0.1083524
703758,0.5260038,0.5233933,0.1083524
703760,0.4945601,0.4893896,0.1282043
703763,0.4945601,0.4893896,0.1282043
703765,0.4833549,0.477244,0.1356209
703768,0.4735395,0.466462,0.1426525
703770,0.4735395,0.466462,0.1426525
703773,0.4597013,0.4498048,0.1519511
703775,0.4545648,0.4441136,0.1545051
703778,0.4545648,0.4441136,0.1545051
703780,0.4458725,0.4338616,0.1619255
703783,0.4458725,0.4338616,0.1619255
703785,0.4423477,0.4297835,0.1643245
703789,0.4383485,0.4252063,0.166689
703791,0.4383485,0.4252063,0.166689
703794,0.4689721,0.4609765,0.1440177
703796,0.4973219,0.4925778,0.1235407
703799,0.4973219,0.4925778,0.1235407
703801,0.4992853,0.4949555,0.1219466
703804,0.4992853,0.4949555,0.1219466
703806,0.5004597,0.4965344,0.1203313
703809,0.5517841,0.5510744,0.08622923
703811,0.5517841,0.5510744,0.08622923
703814,0.5712977,0.5712977,0.07401875
703816,0.5546138,0.5546138,0.08392937
703819,0.5546138,0.5546138,0.08392937
703821,0.5489398,0.5482264,0.08846933
703824,0.5489398,0.5482264,0.08846933
703826,0.5885065,0.5891711,0.06255726
703830,0.6036074,0.6049027,0.05233916
703832,0.6036074,0.6049027,0.05233916
703835,0.6296288,0.6305605,0.03956468
703837,0.6513204,0.651921,0.02797646
703840,0.6513204,0.651921,0.02797646
703842,0.6889865,0.6892704,0
703845,0.6889865,0.6892704,0
703847,0.7038778,0.7038778,0
703850,0.7257769,0.7249676,-0.01978234
703852,0.7257769,0.7249676,-0.01978234
703855,0.7346201,0.7338206,-0.01978234
703857,0.7423044,0.7407211,-0.02797646
703859,0.7423044,0.7407211,-0.02797646
703862,0.7551107,0.7530347,-0.03426402
703864,0.7551107,0.7530347,-0.03426402
703867,0.7203645,0.7195491,-0.01978234
703869,0.6921035,0.6921035,0
703873,0.6921035,0.6921035,0
703875,0.6884183,0.6884183,0
703878,0.687565,0.687565,0
703880,0.687565,0.687565,0
703883,0.7041557,0.7035998,0
703885,0.7041557,0.7035998,0
703888,0.711069,0.7099674,-0.01978234
703890,0.7195491,0.7184606,-0.01978234
703893,0.7195491,0.7184606,-0.01978234
703895,0.7330202,0.7311491,-0.02797646
703898,0.7407211,0.7386047,-0.02797646
703900,0.7407211,0.7386047,-0.02797646
703903,0.7478197,0.7451985,-0.03426402
703905,0.7478197,0.7451985,-0.03426402
703908,0.7576976,0.7545922,-0.03956468
703910,0.7615615,0.758472,-0.03956468
703913,0.7615615,0.758472,-0.03956468
703916,0.7684676,0.7648944,-0.04423466
703919,0.7684676,0.7648944,-0.04423466
703921,0.7712635,0.7679582,-0.04423466
703924,0.7727842,0.7687222,-0.04845664
703926,0.7727842,0.7687222,-0.04845664
703929,0.7750598,0.7712635,-0.04845664
703931,0.776825,0.7722777,-0.04845664
703934,0.776825,0.7722777,-0.04845664
703936,0.7793398,0.7750598,-0.04845664
703939,0.7793398,0.7750598,-0.04845664
703941,0.7815963,0.7773286,-0.04845664
703944,0.7835966,0.7793398,-0.04845664
703946,0.7835966,0.7793398,-0.04845664
703949,0.7870849,0.7828471,-0.04845664
703951,0.7880787,0.7843454,-0.04423466
703954,0.7880787,0.7843454,-0.04423466
703956,0.7873334,0.7833468,-0.04423466
703960,0.7873334,0.7833468,-0.04423466
703962,0.7865875,0.783097,-0.04423466
703965,0.7858408,0.7815963,-0.04845664
703967,0.7858408,0.7815963,-0.04845664
703970,0.7840959,0.7805943,-0.04845664
703972,0.7828471,0.7795909,-0.04423466
703975,0.7828471,0.7795909,-0.04423466
703977,0.782347,0.7788376,-0.04423466
703980,0.782347,0.7788376,-0.04423466
703982,0.7810954,0.7778319,-0.04845664
703985,0.7808449,0.7775803,-0.04423466
703987,0.7808449,0.7775803,-0.04423466
703989,0.7404569,0.7388696,-0.01978234
703992,0.7074825,0.7072059,0
703994,0.7074825,0.7072059,0
703997,0.6807005,0.680988,0
704000,0.6807005,0.680988,0
704003,0.6801254,0.6807005,0
704005,0.651921,0.6528208,0.02797646
704008,0.651921,0.6528208,0.02797646
704010,0.6283845,0.6293179,0.04423466
704013,0.6081289,0.608772,0.05595291
704015,0.6081289,0.608772,0.05595291
704018,0.6255757,0.6262009,0.04845664
704020,0.6255757,0.6262009,0.04845664
704023,0.6437659,0.6443735,0.03426402
704025,0.6581939,0.6590852,0.02797646
704028,0.6581939,0.6590852,0.02797646
704030,0.6693957,0.6702721,0.01978234
704033,0.6271377,0.6283845,0.03956468
704035,0.6271377,0.6283845,0.03956468
704038,0.6361217,0.6370438,0.03956468
704040,0.6361217,0.6370438,0.03956468
704044,0.6428534,0.6437659,0.03426402
704046,0.6477052,0.6486109,0.02797646
704049,0.6477052,0.6486109,0.02797646
704051,0.6249498,0.6262009,0.04423466
704054,0.6249498,0.6262009,0.04423466
704056,0.6055493,0.6065179,0.05934703
704059,0.6246366,0.6262009,0.04423466
704061,0.6246366,0.6262009,0.04423466
704064,0.6314908,0.6327289,0.04423466
704066,0.649214,0.6504185,0.03426402
704069,0.649214,0.6504185,0.03426402
704071,0.680988,0.6818494,0
704074,0.680988,0.6818494,0
704076,0.6952065,0.6957693,0
704079,0.7066523,0.7069291,0
704081,0.7066523,0.7069291,0
704084,0.7203645,0.7203645,0
704087,0.7407211,0.7399282,-0.01978234
704090,0.7407211,0.7399282,-0.01978234
704092,0.7504317,0.749388,-0.02797646
704095,0.7504317,0.749388,-0.02797646
704097,0.7582139,0.7569224,-0.01978234
704100,0.7654059,0.7636142,-0.03426402
704102,0.7654059,0.7636142,-0.03426402
704105,0.7758168,0.7737964,-0.03956468
704107,0.7800927,0.7780834,-0.03956468
704110,0.7800927,0.7780834,-0.03956468
704112,0.7835966,0.7810954,-0.04423466
704115,0.7835966,0.7810954,-0.04423466
704117,0.7917944,0.7893192,-0.04845664
704119,0.7945082,0.7920414,-0.04845664
704122,0.7945082,0.7920414,-0.04845664
704124,0.7972127,0.7942618,-0.04845664
704128,0.798684,0.7954926,-0.04845664
704130,0.798684,0.7954926,-0.04845664
704133,0.8013745,0.7981939,-0.04845664
704135,0.8013745,0.7981939,-0.04845664
704138,0.8023506,0.7994187,-0.05233916
704140,0.8033255,0.7999081,-0.05233916
704143,0.8033255,0.7999081,-0.05233916
704145,0.804056,0.8003972,-0.05233916
704148,0.8050289,0.8018627,-0.05233916
704150,0.8050289,0.8018627,-0.05233916
704153,0.806971,0.8035691,-0.05233916
704155,0.806971,0.8035691,-0.05233916
704158,0.8062432,0.8025945,-0.05233916
704160,0.8057577,0.8021067,-0.05233916
704163,0.8057577,0.8021067,-0.05233916
704165,0.7659171,0.7643827,-0.02797646
704168,0.7060983,0.7063754,0
704171,0.7060983,0.7063754,0
704174,0.7058211,0.7060983,0
704176,0.7058211,0.7060983,0
704179,0.7058211,0.7060983,0
704181,0.7154584,0.7154584,0
704184,0.7154584,0.7154584,0
704186,0.7154584,0.7154584,0
704189,0.7154584,0.7154584,0
704191,0.6898379,0.6901216,0.01978234
704194,0.6676395,0.6685182,0.02797646
704196,0.6676395,0.6685182,0.02797646
704199,0.6364292,0.6373509,0.04845664
704201,0.6097356,0.6097356,0.07132626
704204,0.6097356,0.6097356,0.07132626
704206,0.5824909,0.5814822,0.09065409
704209,0.5824909,0.5814822,0.09065409
704211,0.5591815,0.5567266,0.1083524
704215,0.5392296,0.5348573,0.1219466
704217,0.5392296,0.5348573,0.1219466
704220,0.55778,0.555319,0.1119058
704222,0.5664824,0.564406,0.1046783
704225,0.5664824,0.564406,0.1046783
704227,0.5609285,0.5584812,0.1101434
704230,0.5609285,0.5584812,0.1101434
704232,0.555319,0.5524929,0.1136409
704235,0.530449,0.5260038,0.1282043
704237,0.530449,0.5260038,0.1282043
704240,0.5196414,0.513962,0.1341704
704242,0.5059038,0.4985009,0.1426525
704245,0.5059038,0.4985009,0.1426525
704247,0.53008,0.5252593,0.1266688
704249,0.53008,0.5252593,0.1266688
704252,0.5492961,0.5467969,0.1119058
704254,0.5647526,0.5637122,0.1008706
704258,0.5647526,0.5637122,0.1008706
704260,0.5954478,0.5951191,0.08156469
704263,0.6202354,0.6211812,0.0656106
704265,0.6202354,0.6211812,0.0656106
704268,0.6489125,0.6501176,0.04845664
704270,0.6489125,0.6501176,0.04845664
704273,0.6926687,0.6940797,0.01978234
704275,0.6728944,0.6740565,0.03426402
704278,0.6728944,0.6740565,0.03426402
704280,0.6564078,0.6578966,0.03956468
704283,0.6649964,0.6661724,0.03426402
704285,0.6649964,0.6661724,0.03426402
704288,0.687565,0.6884183,0
704290,0.687565,0.6884183,0
704293,0.7002546,0.7010924,0
704295,0.7113441,0.7116191,0
704299,0.7113441,0.7116191,0
704301,0.7244276,0.7246976,0
704304,0.7356848,0.7354187,0
704306,0.7356848,0.7354187,0
704309,0.7462481,0.7457234,-0.01978234
704311,0.7462481,0.7457234,-0.01978234
704314,0.7548515,0.7540734,-0.02797646
704316,0.7620752,0.7607903,-0.02797646
704319,0.7620752,0.7607903,-0.02797646
704321,0.7682129,0.7666831,-0.03426402
704324,0.7682129,0.7666831,-0.03426402
704326,0.7770769,0.7753122,-0.03956468
704329,0.7808449,0.7785863,-0.03956468
704331,0.7808449,0.7785863,-0.03956468
704334,0.7838463,0.7815963,-0.04423466
704336,0.7863387,0.7840959,-0.04423466
704339,0.7863387,0.7840959,-0.04423466
704342,0.7888232,0.7865875,-0.04423466
704345,0.7888232,0.7865875,-0.04423466
704347,0.7558876,0.7553698,-0.01978234
704350,0.7263159,0.7268545,0
704352,0.7263159,0.7268545,0
704355,0.7016503,0.7027649,0
704357,0.6647022,0.6658786,0.03426402
704360,0.6647022,0.6658786,0.03426402
704362,0.6081289,0.6084505,0.07661668
704365,0.6081289,0.6084505,0.07661668
704367,0.5848376,0.5834977,0.09278741
704370,0.5650989,0.5630175,0.1083524
704372,0.5650989,0.5630175,0.1083524
704375,0.5352231,0.5297108,0.1312212
704377,0.5233933,0.5166202,0.1412742
704380,0.5233933,0.5166202,0.1412742
704382,0.508604,0.4988932,0.1570175
704385,0.508604,0.4988932,0.1570175
704388,0.5024107,0.4913847,0.1619255
704390,0.4969283,0.4849715,0.1678588
704393,0.4969283,0.4849715,0.1678588
704395,0.4873863,0.4731261,0.1758294
704398,0.4849715,0.4702222,0.1769387
704400,0.4849715,0.4702222,0.1769387
704403,0.4792896,0.463094,0.1813082
704405,0.4792896,0.463094,0.1813082
704408,0.477244,0.4609765,0.1823843
704410,0.4731261,0.4558544,0.1855749
704413,0.4731261,0.4558544,0.1855749
704415,0.4702222,0.4528397,0.1855749
704418,0.4668813,0.4498048,0.1855749
704420,0.4668813,0.4498048,0.1855749
704423,0.4622481,0.4445539,0.1855749
704425,0.4622481,0.4445539,0.1855749
704429,0.4597013,0.4427898,0.1845175
704431,0.4558544,0.4392403,0.1813082
704434,0.4558544,0.4392403,0.1813082
704436,0.4541341,0.4379019,0.1802258
704439,0.4524074,0.4361108,0.1791368
704441,0.4524074,0.4361108,0.1791368
704444,0.4489339,0.4329587,0.1780411
704446,0.4489339,0.4329587,0.1780411
704449,0.4480613,0.4325065,0.1769387
704451,0.4458725,0.4302385,0.1758294
704454,0.4458725,0.4302385,0.1758294
704456,0.4436728,0.4284154,0.174713
704459,0.4436728,0.4284154,0.174713
704461,0.4396856,0.4242849,0.1758294
704464,0.4396856,0.4247459,0.1724585
704466,0.4396856,0.4247459,0.1724585
704470,0.4392403,0.4242849,0.1735894
704472,0.4383485,0.4238235,0.174713
704475,0.4383485,0.4238235,0.174713
704477,0.4379019,0.4233615,0.1735894
704480,0.4379019,0.4233615,0.1735894
704482,0.4370072,0.4228991,0.1724585
704485,0.5000685,0.4953507,0.1297215
704487,0.5000685,0.4953507,0.1297215
704490,0.5035778,0.4992853,0.1266688
704492,0.5089886,0.5051297,0.1235407
704495,0.5089886,0.5051297,0.1235407
704497,0.5016313,0.4969283,0.1266688
704500,0.5016313,0.4969283,0.1266688
704502,0.4957456,0.4905876,0.1297215
704505,0.4829499,0.477244,0.1384764
704507,0.4829499,0.477244,0.1384764
704510,0.477244,0.4702222,0.1398823
704513,0.466462,0.4579955,0.1480375
704515,0.466462,0.4579955,0.1480375
704518,0.4622481,0.4532716,0.1506579
704520,0.4622481,0.4532716,0.1506579
704523,0.4588492,0.4489339,0.1532334
704525,0.4541341,0.4432315,0.1582588
704528,0.4541341,0.4432315,0.1582588
704530,0.4528397,0.4410186,0.1607126
704533,0.509757,0.5051297,0.1219466
704535,0.509757,0.5051297,0.1219466
704538,0.5322903,0.5297108,0.1065312
704540,0.5322903,0.5297108,0.1065312
704543,0.5993783,0.6000308,0.0656106
704545,0.6255757,0.6265134,0.04845664
704548,0.6255757,0.6265134,0.04845664
704550,0.6737661,0.6746368,0.01978234
704553,0.6932335,0.6937978,0
704556,0.6932335,0.6937978,0
704559,0.6516207,0.6528208,0.03426402
704561,0.6516207,0.6528208,0.03426402
704564,0.6379647,0.6388841,0.03956468
704566,0.6489125,0.6498165,0.02797646
704569,0.6489125,0.6498165,0.02797646
704571,0.6376578,0.6388841,0.03956468
704574,0.6214961,0.6224399,0.05233916
704576,0.6214961,0.6224399,0.05233916
704579,0.608772,0.6094146,0.05934703
704581,0.608772,0.6094146,0.05934703
704584,0.6382713,0.6394964,0.03956468
704586,0.6501176,0.6513204,0.03426402
704589,0.6501176,0.6513204,0.03426402
704591,0.6167554,0.6173896,0.05233916
704594,0.6167554,0.6173896,0.05233916
704596,0.6049027,0.6055493,0.06255726
704600,0.6345818,0.635814,0.04423466
704602,0.6345818,0.635814,0.04423466
704605,0.6467983,0.6477052,0.03426402
704607,0.6286958,0.6296288,0.04845664
704610,0.6286958,0.6296288,0.04845664
704612,0.614212,0.615167,0.06255726
704615,0.614212,0.615167,0.06255726
704617,0.6205508,0.6208661,0.06255726
704620,0.6351982,0.6355062,0.05595291
704622,0.6351982,0.6355062,0.05595291
704625,0.6477052,0.6483091,0.04845664
704627,0.6898379,0.690405,0.02797646
704630,0.6898379,0.690405,0.02797646
704632,0.6717301,0.6723125,0.03956468
704635,0.6717301,0.6723125,0.03956468
704637,0.646193,0.646193,0.05934703
704641,0.6221254,0.6218109,0.07661668
704643,0.6221254,0.6218109,0.07661668
704645,0.6032831,0.6019843,0.08846933
704648,0.5695826,0.5664824,0.1136409
704650,0.5695826,0.5664824,0.1136409
704653,0.555319,0.5507192,0.1235407
704655,0.555319,0.5507192,0.1235407
704658,0.5297108,0.5226451,0.1398823
704660,0.5185105,0.5105241,0.1480375
704663,0.5185105,0.5105241,0.1480375
704665,0.5004597,0.4897892,0.1582588
704668,0.4925778,0.4809199,0.1631294
704670,0.4925778,0.4809199,0.1631294
704673,0.4853748,0.4731261,0.166689
704675,0.4853748,0.4731261,0.166689
704678,0.4751895,0.4609765,0.1724585
704680,0.4722982,0.4579955,0.174713
704684,0.4722982,0.4579955,0.174713
704686,0.4685547,0.4528397,0.1791368
704689,0.4668813,0.4515415,0.1780411
704691,0.4668813,0.4515415,0.1780411
704694,0.4652019,0.4498048,0.1769387
704696,0.4652019,0.4498048,0.1769387
704699,0.4941643,0.4841639,0.1545051
704701,0.5200178,0.513962,0.1370561
704704,0.5200178,0.513962,0.1370561
704706,0.5424856,0.5385033,0.1219466
704709,0.5403171,0.5355885,0.1235407
704711,0.5403171,0.5355885,0.1235407
704714,0.5395923,0.5352231,0.1251145
704716,0.5395923,0.5352231,0.1251145
704719,0.5215207,0.5151029,0.1370561
704721,0.5132,0.5055169,0.1426525
704724,0.5132,0.5055169,0.1426525
704727,0.5008504,0.4917827,0.1519511
704730,0.5008504,0.4917827,0.1519511
704732,0.4949555,0.4845679,0.1570175
704735,0.4893896,0.4788812,0.1582588
704737,0.4893896,0.4788812,0.1582588
704740,0.4801054,0.468137,0.1631294
704742,0.4760123,0.4639383,0.1643245
704745,0.4760123,0.4639383,0.1643245
704747,0.4677188,0.454995,0.1690205
704750,0.4677188,0.454995,0.1690205
704752,0.4639383,0.450674,0.1701742
704755,0.4614008,0.4467493,0.1724585
704757,0.4605518,0.4458725,0.1724585
704760,0.4601268,0.4449939,0.1724585
704762,0.4592754,0.4441136,0.1735894
704765,0.4592754,0.4441136,0.1735894
704768,0.4579955,0.4436728,0.1724585
704771,0.4584226,0.4436728,0.1713202
704773,0.4562834,0.4423477,0.1735894
704775,0.454995,0.4405747,0.1724585
704778,0.454995,0.4405747,0.1724585
704780,0.453703,0.4396856,0.1713202
704783,0.453703,0.4387946,0.1713202
704785,0.453703,0.4387946,0.1713202
704788,0.4541341,0.4396856,0.1724585
704790,0.4541341,0.4396856,0.1724585
704793,0.454995,0.4405747,0.1724585
704795,0.4545648,0.4396856,0.174713
704798,0.4545648,0.4396856,0.174713
704800,0.4532716,0.4379019,0.174713
704803,0.4528397,0.4370072,0.1769387
704805,0.4528397,0.4370072,0.1769387
704808,0.4528397,0.4365593,0.1802258
704811,0.4528397,0.4365593,0.1802258
704814,0.4528397,0.4361108,0.1802258
704816,0.453703,0.4370072,0.1780411
704819,0.453703,0.4370072,0.1780411
704821,0.4545648,0.4387946,0.1791368
704824,0.4532716,0.4370072,0.1791368
704826,0.4532716,0.4370072,0.1791368
704829,0.4528397,0.4361108,0.1802258
704831,0.4528397,0.4361108,0.1802258
704834,0.4511079,0.4343124,0.1791368
704836,0.4493696,0.4343124,0.1769387
704839,0.4493696,0.4343124,0.1769387
704841,0.4498048,0.4343124,0.1769387
704844,0.4493696,0.4347627,0.174713
704846,0.4493696,0.4347627,0.174713
704849,0.4493696,0.4338616,0.1758294
704851,0.4493696,0.4338616,0.1758294
704855,0.4489339,0.4334104,0.1780411
704857,0.4511079,0.4361108,0.174713
704860,0.4511079,0.4361108,0.174713
704862,0.4541341,0.4387946,0.1735894
704865,0.4541341,0.4387946,0.1735894
704867,0.4554249,0.4410186,0.1724585
704870,0.4588492,0.4441136,0.1713202
704872,0.4588492,0.4441136,0.1713202
704875,0.4592754,0.4449939,0.1713202
704877,0.4601268,0.4471871,0.1701742
704880,0.4601268,0.4471871,0.1701742
704882,0.4605518,0.4471871,0.1678588
704885,0.4605518,0.4471871,0.1678588
704887,0.4618246,0.4480613,0.1701742
704890,0.4605518,0.4467493,0.1701742
704892,0.4605518,0.4467493,0.1701742
704896,0.4592754,0.4449939,0.1724585
704898,0.4933717,0.4845679,0.1506579
704901,0.4933717,0.4845679,0.1506579
704903,0.5485832,0.5450047,0.1186941
704905,0.5485832,0.5450047,0.1186941
704908,0.5489398,0.5453635,0.1153499
704910,0.5496522,0.5467969,0.1153499
704913,0.5496522,0.5467969,0.1153499
704915,0.5428462,0.5385033,0.1203313
704918,0.5359538,0.5315546,0.1251145
704920,0.5359538,0.5315546,0.1251145
704923,0.5211454,0.5147229,0.1356209
704925,0.5211454,0.5147229,0.1356209
704928,0.5132,0.5062904,0.1398823
704930,0.5004597,0.4917827,0.1493534
704933,0.5004597,0.4917827,0.1493534
704935,0.4953507,0.4857778,0.1519511
704939,0.4909863,0.4813265,0.1557664
704941,0.4909863,0.4813265,0.1557664
704944,0.4849715,0.4743652,0.1582588
704946,0.4849715,0.4743652,0.1582588
704949,0.4833549,0.4727124,0.1582588
704951,0.4784724,0.4673002,0.1607126
704954,0.4784724,0.4673002,0.1607126
704956,0.477244,0.466462,0.1619255
704959,0.4727124,0.4618246,0.1619255
704961,0.4727124,0.4618246,0.1619255
704964,0.4722982,0.4605518,0.1631294
704966,0.4722982,0.4605518,0.1631294
704969,0.4714689,0.4597013,0.1631294
704971,0.4693892,0.4571402,0.165511
704974,0.4693892,0.4571402,0.165511
704976,0.4689721,0.4562834,0.165511
704979,0.4685547,0.4562834,0.166689
704982,0.4685547,0.4562834,0.166689
704985,0.4685547,0.454995,0.1701742
704987,0.4685547,0.454995,0.1701742
704990,0.4689721,0.4545648,0.1713202
704992,0.4685547,0.4554249,0.1713202
704995,0.4685547,0.4554249,0.1713202
704997,0.4673002,0.4528397,0.1713202
705000,0.4656223,0.4515415,0.1713202
705002,0.4656223,0.4515415,0.1713202
705005,0.464781,0.450674,0.1713202
705007,0.464781,0.450674,0.1713202
705010,0.4618246,0.4480613,0.1690205
705012,0.4609765,0.4476244,0.1701742
705015,0.4609765,0.4476244,0.1701742
705017,0.4618246,0.4484978,0.1701742
705020,0.4618246,0.4484978,0.1701742
705022,0.463094,0.4489339,0.1713202
705026,0.4626713,0.4484978,0.1724585
705028,0.4626713,0.4484978,0.1724585
705031,0.4626713,0.4480613,0.1724585
705033,0.4639383,0.4489339,0.1735894
705035,0.4639383,0.4489339,0.1735894
705038,0.4643598,0.4493696,0.1735894
705040,0.4643598,0.4493696,0.1735894
705043,0.4639383,0.4493696,0.174713
705045,0.4643598,0.4493696,0.1758294
705048,0.4643598,0.4493696,0.1758294
705050,0.4635163,0.4476244,0.1791368
705053,0.463094,0.4471871,0.1791368
705055,0.463094,0.4471871,0.1791368
705058,0.4643598,0.4489339,0.1780411
705060,0.4643598,0.4489339,0.1780411
705063,0.464781,0.4493696,0.1791368
705065,0.4652019,0.4498048,0.1769387
705069,0.4652019,0.4498048,0.1769387
705071,0.4660423,0.4519747,0.174713
705074,0.464781,0.4502396,0.174713
705076,0.464781,0.4502396,0.174713
705079,0.4639383,0.4493696,0.1735894
705081,0.4639383,0.4493696,0.1735894
705084,0.4652019,0.450674,0.1735894
705086,0.4660423,0.4524074,0.1713202
705089,0.4660423,0.4524074,0.1713202
705091,0.468137,0.4545648,0.1724585
705094,0.4689721,0.454995,0.1713202
705096,0.4689721,0.454995,0.1713202
705099,0.4702222,0.4571402,0.1724585
705101,0.4702222,0.4571402,0.1724585
705104,0.4714689,0.4579955,0.1690205
705106,0.4735395,0.4601268,0.1701742
705110,0.4735395,0.4601268,0.1701742
705112,0.4747775,0.4609765,0.1724585
705115,0.4722982,0.4584226,0.1724585
705117,0.4722982,0.4584226,0.1724585
705120,0.4714689,0.4575681,0.1735894
705122,0.4714689,0.4575681,0.1735894
705125,0.4722982,0.4579955,0.1735894
705127,0.4727124,0.4584226,0.174713
705130,0.4727124,0.4584226,0.174713
705132,0.4727124,0.4584226,0.174713
705135,0.4727124,0.4584226,0.174713
705137,0.4727124,0.4584226,0.174713
705140,0.4710537,0.456712,0.1758294
705142,0.4710537,0.456712,0.1758294
705145,0.4693892,0.4554249,0.1758294
705147,0.4685547,0.4541341,0.1769387
705150,0.4685547,0.4541341,0.1769387
705153,0.4693892,0.453703,0.1791368
705156,0.4693892,0.453703,0.1791368
705158,0.4698059,0.4541341,0.1791368
705161,0.4702222,0.4545648,0.1780411
705163,0.4702222,0.4545648,0.1780411
705165,0.4693892,0.453703,0.1780411
705168,0.4693892,0.4532716,0.1802258
705170,0.4693892,0.4532716,0.1802258
705173,0.4673002,0.4502396,0.1823843
705175,0.4673002,0.4502396,0.1823843
705178,0.4656223,0.4484978,0.1845175
705180,0.463094,0.4449939,0.1855749
705183,0.463094,0.4449939,0.1855749
705185,0.4618246,0.4436728,0.1866263
705188,0.4597013,0.4414621,0.1866263
705190,0.4597013,0.4414621,0.1866263
705193,0.4588492,0.4405747,0.1855749
705196,0.4588492,0.4405747,0.1855749
705199,0.4575681,0.4396856,0.1866263
705201,0.4579955,0.4392403,0.1887116
705204,0.4579955,0.4392403,0.1887116
705206,0.456712,0.4387946,0.1876719
705209,0.4558544,0.4379019,0.1855749
705211,0.4558544,0.4379019,0.1855749
705214,0.456712,0.4379019,0.1855749
705216,0.456712,0.4379019,0.1855749
705219,0.456712,0.4383485,0.1855749
705221,0.4562834,0.4379019,0.1897456
705224,0.4562834,0.4379019,0.1897456
705226,0.4562834,0.4374548,0.1897456
705229,0.4558544,0.4365593,0.1907741
705231,0.4558544,0.4365593,0.1907741
705234,0.4588492,0.4387946,0.191797
705236,0.4588492,0.4387946,0.191797
705240,0.4597013,0.4401304,0.1928145
705242,0.4579955,0.4387946,0.191797
705245,0.4579955,0.4387946,0.191797
705247,0.4584226,0.4396856,0.1907741
705250,0.4588492,0.4401304,0.1897456
705252,0.4588492,0.4401304,0.1897456
705255,0.4592754,0.4410186,0.1876719
705257,0.4592754,0.4410186,0.1876719
705260,0.4562834,0.4379019,0.1887116
705262,0.4541341,0.4356619,0.1866263
705265,0.4541341,0.4356619,0.1866263
705267,0.4541341,0.4352126,0.1887116
705270,0.4541341,0.4347627,0.1897456
705272,0.4541341,0.4347627,0.1897456
705275,0.4515415,0.4329587,0.1887116
705277,0.4515415,0.4329587,0.1887116
705281,0.4511079,0.4316007,0.1887116
705283,0.4493696,0.4311472,0.1876719
705286,0.4493696,0.4311472,0.1876719
705288,0.4480613,0.4302385,0.1845175
705291,0.4480613,0.4302385,0.1845175
705293,0.4467493,0.4288719,0.183454
705295,0.4449939,0.4279585,0.1823843
705298,0.4449939,0.4279585,0.1823843
705300,0.4423477,0.4261257,0.1802258
705303,0.4410186,0.4252063,0.1780411
705305,0.4410186,0.4252063,0.1780411
705308,0.4410186,0.4247459,0.1791368
705310,0.4410186,0.4247459,0.1791368
705313,0.4414621,0.4252063,0.1791368
705315,0.4419051,0.4256662,0.1780411
705318,0.4419051,0.4256662,0.1780411
705320,0.4731261,0.463094,0.1582588
705324,0.5004597,0.4937682,0.1398823
705326,0.5004597,0.4937682,0.1398823
705329,0.5233933,0.5196414,0.1251145
705331,0.5233933,0.5196414,0.1251145
705334,0.5931431,0.5931431,0.08156469
705336,0.6214961,0.6221254,0.06255726
705339,0.6214961,0.6221254,0.06255726
705341,0.645587,0.646193,0.04845664
705344,0.6667597,0.6676395,0.02797646
705346,0.6667597,0.6676395,0.02797646
705349,0.7066523,0.7066523,0
705351,0.7066523,0.7066523,0
705354,0.7249676,0.7246976,0
705356,0.7553698,0.7540734,-0.01978234
705359,0.7553698,0.7540734,-0.01978234
705361,0.7679582,0.7666831,-0.02797646
705364,0.7795909,0.7778319,-0.02797646
705367,0.7795909,0.7778319,-0.02797646
705370,0.8062432,0.8042993,-0.03426402
705372,0.8062432,0.8042993,-0.03426402
705375,0.8185275,0.8168523,-0.03426402
705377,0.829923,0.8277984,-0.03426402
705380,0.829923,0.8277984,-0.03426402
705382,0.8455727,0.8437192,-0.03426402
705385,0.8508785,0.8492672,-0.03426402
705387,0.8508785,0.8492672,-0.03426402
705390,0.8439512,0.8418618,-0.03426402
705392,0.8439512,0.8418618,-0.03426402
705395,0.8362648,0.8336869,-0.03426402
705397,0.8327476,0.8296872,-0.03426402
705400,0.8327476,0.8296872,-0.03426402
705402,0.8308656,0.8275619,-0.03956468
705405,0.7818466,0.7783349,-0.02797646
705408,0.7818466,0.7783349,-0.02797646
705411,0.7428315,0.7393991,-0.01978234
705413,0.7428315,0.7393991,-0.01978234
705416,0.6968932,0.6935157,0
705418,0.6852845,0.6821364,0
705421,0.6852845,0.6821364,0
705423,0.6755064,0.6726035,0
705425,0.6755064,0.6726035,0
705428,0.6731851,0.6705639,0
705430,0.6763749,0.6740565,0
705433,0.6763749,0.6740565,0
705435,0.6798376,0.6775311,0
705438,0.6852845,0.6827098,0
705440,0.6852845,0.6827098,0
705443,0.6889865,0.6867107,0
705445,0.6889865,0.6867107,0
705448,0.6968932,0.694925,0
705451,0.7013714,0.6991359,0
705454,0.7013714,0.6991359,0
705456,0.7041557,0.7019292,0
705459,0.7080355,0.7058211,0
705461,0.7080355,0.7058211,0
705464,0.7088641,0.7069291,0
705466,0.7088641,0.7069291,0
705469,0.7091401,0.7069291,-0.01978234
705471,0.7083117,0.7063754,0
705474,0.7083117,0.7063754,0
705476,0.7074825,0.7052664,0
705479,0.7074825,0.7052664,-0.01978234
705481,0.7074825,0.7052664,-0.01978234
705484,0.707759,0.7052664,0
705486,0.707759,0.7052664,0
705489,0.7055438,0.7030433,0
705491,0.7035998,0.7010924,0
705495,0.7035998,0.7010924,0
705497,0.7019292,0.6994157,0
705500,0.7035998,0.7005339,0
705502,0.7035998,0.7005339,0
705505,0.7038778,0.7013714,-0.01978234
705507,0.7038778,0.7013714,-0.01978234
705510,0.7060983,0.7030433,-0.01978234
705512,0.708588,0.7049889,-0.02797646
705515,0.708588,0.7049889,-0.02797646
705517,0.7083117,0.7044336,-0.02797646
705520,0.7066523,0.7024865,-0.03426402
705522,0.7066523,0.7024865,-0.03426402
705525,0.7052664,0.7008132,-0.03956468
705527,0.7052664,0.7008132,-0.03956468
705530,0.7038778,0.6994157,-0.03956468
705532,0.6982958,0.6932335,-0.04423466
705536,0.6982958,0.6932335,-0.04423466
705538,0.6957693,0.6906884,-0.04423466
705541,0.6915378,0.6861406,-0.04423466
705543,0.6915378,0.6861406,-0.04423466
705546,0.6898379,0.6841414,-0.04423466
705548,0.6898379,0.6841414,-0.04423466
705551,0.6889865,0.6829963,-0.04845664
705553,0.6878495,0.680988,-0.05233916
705555,0.6878495,0.680988,-0.05233916
705558,0.6849989,0.6783969,-0.04845664
705560,0.6849989,0.6783969,-0.04845664
705563,0.6818494,0.6746368,-0.05233916
705565,0.6795497,0.6723125,-0.04845664
705568,0.6795497,0.6723125,-0.04845664
705570,0.6755064,0.6679325,-0.05233916
705573,0.6731851,0.6655847,-0.05233916
705575,0.6731851,0.6655847,-0.05233916
705579,0.6711472,0.6635236,-0.05233916
705581,0.6711472,0.6635236,-0.05233916
705584,0.6685182,0.660568,-0.05233916
705586,0.667053,0.659382,-0.05233916
705589,0.667053,0.659382,-0.05233916
705591,0.667053,0.659382,-0.05595291
705594,0.6661724,0.6584912,-0.05934703
705596,0.6661724,0.6584912,-0.05934703
705599,0.6664661,0.6584912,-0.05934703
705601,0.6664661,0.6584912,-0.05934703
705604,0.6655847,0.6584912,-0.05934703
705606,0.6664661,0.6599753,-0.05595291
705609,0.6664661,0.6599753,-0.05595291
705611,0.6682253,0.6617518,-0.05595291
705614,0.6676395,0.6620474,-0.05233916
705616,0.6676395,0.6620474,-0.05233916
705619,0.6673463,0.6620474,-0.05233916
705622,0.6673463,0.6620474,-0.05233916
705625,0.6673463,0.6629335,-0.04845664
705627,0.6679325,0.6632286,-0.05233916
705630,0.6679325,0.6632286,-0.05233916
705632,0.6691033,0.6647022,-0.05233916
705635,0.66998,0.6664661,-0.05233916
705637,0.66998,0.6664661,-0.05233916
705640,0.6708556,0.6679325,-0.05233916
705642,0.6708556,0.6679325,-0.05233916
705645,0.6717301,0.6693957,-0.04845664
705647,0.6324196,0.6324196,-0.02797646
705650,0.6324196,0.6324196,-0.02797646
705652,0.5993783,0.6010084,0
705655,0.5719823,0.5747126,0
705657,0.5595313,0.5630175,0.02797646
705660,0.5492961,0.5532007,0.04845664
705662,0.5492961,0.5532007,0.04845664
705666,0.5311863,0.5348573,0.06852804
705668,0.5039662,0.5043544,0.1046783
705671,0.5039662,0.5043544,0.1046783
705673,0.4792896,0.4780633,0.1203313
705676,0.4592754,0.4554249,0.1341704
705678,0.4592754,0.4554249,0.1341704
705681,0.4238235,0.4154301,0.1557664
705683,0.4238235,0.4154301,0.1557664
705686,0.4083038,0.3976209,0.1643245
705688,0.3846134,0.3700944,0.174713
705690,0.3846134,0.3700944,0.174713
705693,0.3748225,0.3588198,0.1791368
705695,0.3748225,0.3588198,0.1791368
705698,0.3658403,0.3483046,0.1845175
705700,0.3658403,0.3471792,0.1866263
705703,0.3658403,0.3471792,0.1866263
705705,0.3642322,0.3454843,0.1897456
705709,0.3711503,0.3538778,0.1887116
705711,0.3711503,0.3538778,0.1887116
705714,0.3758652,0.3593647,0.1887116
705716,0.3758652,0.3593647,0.1887116
705719,0.3805216,0.3642322,0.1897456
705721,0.4311472,0.4201138,0.1780411
705724,0.4311472,0.4201138,0.1780411
705726,0.4731261,0.4656223,0.1690205
705729,0.5051297,0.4996771,0.1643245
705731,0.5051297,0.4996771,0.1643245
705734,0.5024107,0.4961402,0.166689
705736,0.5024107,0.4961402,0.166689
705739,0.5000685,0.4933717,0.1690205
705741,0.4668813,0.4571402,0.1802258
705744,0.4668813,0.4571402,0.1802258
705746,0.4545648,0.4432315,0.1855749
705750,0.4265846,0.4116447,0.1958353
705752,0.4265846,0.4116447,0.1958353
705755,0.4154301,0.3986039,0.1988102
705757,0.4154301,0.3986039,0.1988102
705760,0.4059006,0.3876539,0.2027088
705762,0.3891652,0.3679734,0.20842
705765,0.3891652,0.3679734,0.20842
705767,0.3820612,0.3599087,0.2112177
705770,0.3706227,0.3454843,0.2148914
705772,0.3706227,0.3454843,0.2148914
705775,0.3674413,0.3414966,0.2167048
705777,0.3674413,0.3414966,0.2167048
705780,0.365305,0.3380413,0.2185032
705782,0.365305,0.3380413,0.2193969
705785,0.365305,0.3380413,0.2193969
705787,0.364769,0.3368816,0.2211734
705790,0.3690354,0.3409232,0.2211734
705793,0.3690354,0.3409232,0.2211734
705796,0.3700944,0.3420692,0.2220564
705798,0.3700944,0.3420692,0.2220564
705801,0.373777,0.3460502,0.2193969
705803,0.3774237,0.3516591,0.2167048
705806,0.3774237,0.3516591,0.2167048
705808,0.3805216,0.3577275,0.2112177
705811,0.3820612,0.3593647,0.2093567
705813,0.3820612,0.3593647,0.2093567
705816,0.3856296,0.3642322,0.2055842
705818,0.3856296,0.3642322,0.2055842
705820,0.3901695,0.3716771,0.199792
705823,0.393167,0.3763854,0.1948336
705825,0.393167,0.3763854,0.1948336
705828,0.3966355,0.3820612,0.1907741
705830,0.3966355,0.3820612,0.1907741
705833,0.3986039,0.3841043,0.1876719
705836,0.4005627,0.3876539,0.1823843
705839,0.4005627,0.3876539,0.1823843
705841,0.4010509,0.3891652,0.1802258
705844,0.4020255,0.3891652,0.1791368
705846,0.4020255,0.3891652,0.1791368
705849,0.4049353,0.3946573,0.1735894
705851,0.4049353,0.3946573,0.1735894
705854,0.4054182,0.3956476,0.1724585
705856,0.4015385,0.3901695,0.1735894
705859,0.4015385,0.3901695,0.1735894
705861,0.4000739,0.3881583,0.1735894
705864,0.4005627,0.3876539,0.174713
705866,0.4005627,0.3876539,0.174713
705869,0.4010509,0.3881583,0.1758294
705871,0.4010509,0.3881583,0.1758294
705874,0.4020255,0.3886621,0.1758294
705876,0.4025119,0.3891652,0.174713
705880,0.4025119,0.3891652,0.174713
705882,0.4020255,0.3891652,0.174713
705885,0.4010509,0.3876539,0.174713
705887,0.4010509,0.3876539,0.174713
705890,0.4020255,0.3886621,0.174713
705892,0.4020255,0.3886621,0.174713
705895,0.4025119,0.3891652,0.1735894
705897,0.403483,0.3901695,0.174713
705900,0.403483,0.3901695,0.174713
705902,0.4039677,0.3911712,0.1724585
705905,0.4044518,0.3911712,0.1735894
705907,0.4044518,0.3911712,0.1735894
705910,0.4044518,0.3911712,0.1758294
705912,0.4044518,0.3911712,0.1758294
705915,0.4029978,0.3896677,0.174713
705917,0.4020255,0.3886621,0.1758294
705921,0.4020255,0.3886621,0.1758294
705923,0.4005627,0.386643,0.1758294
705926,0.4015385,0.3886621,0.1791368
705928,0.4015385,0.3886621,0.1791368
705931,0.4020255,0.3891652,0.1791368
705933,0.4020255,0.3891652,0.1791368
705936,0.4025119,0.3896677,0.1769387
705938,0.4000739,0.3871488,0.1769387
705941,0.4000739,0.3871488,0.1769387
705943,0.3961419,0.3830841,0.1758294
705946,0.3951527,0.3810355,0.1769387
705948,0.3951527,0.3810355,0.1769387
705950,0.393167,0.3794918,0.174713
705953,0.393167,0.3794918,0.174713
705955,0.3916712,0.3784592,0.1724585
705958,0.3916712,0.3784592,0.1724585
705960,0.3916712,0.3784592,0.1724585
705964,0.3901695,0.3779418,0.1724585
705966,0.3901695,0.3779418,0.1724585
705969,0.3891652,0.3774237,0.1713202
705971,0.3876539,0.3758652,0.1701742
705974,0.3876539,0.3758652,0.1701742
705976,0.3876539,0.3758652,0.1678588
705979,0.386643,0.3748225,0.166689
705981,0.386643,0.3748225,0.166689
705984,0.3861367,0.3753442,0.165511
705986,0.3861367,0.3753442,0.165511
705989,0.3846134,0.3732531,0.1643245
705991,0.3830841,0.3716771,0.1643245
705994,0.3830841,0.3716771,0.1643245
705996,0.3820612,0.3711503,0.1619255
705999,0.382573,0.3706227,0.1607126
706001,0.382573,0.3706227,0.1607126
706004,0.3815487,0.3711503,0.1594904
706007,0.3815487,0.3711503,0.1594904
706010,0.382573,0.3727285,0.1594904
706012,0.382573,0.3722032,0.1570175
706015,0.382573,0.3722032,0.1570175
706017,0.3871488,0.3769049,0.1570175
706020,0.3881583,0.3784592,0.1557664
706022,0.3881583,0.3784592,0.1557664
706025,0.3886621,0.3784592,0.1582588
706027,0.3886621,0.3784592,0.1582588
706030,0.3891652,0.3789758,0.1570175
706032,0.3916712,0.3810355,0.1570175
706035,0.3916712,0.3810355,0.1570175
706037,0.3951527,0.3851218,0.1557664
706040,0.3951527,0.3851218,0.1557664
706042,0.3951527,0.3851218,0.1557664
706045,0.3951527,0.3851218,0.1557664
706048,0.3951527,0.3851218,0.1557664
706051,0.3941611,0.3841043,0.1557664
706053,0.3936644,0.3835945,0.1557664
706056,0.3936644,0.3835945,0.1557664
706058,0.3961419,0.3861367,0.1545051
706061,0.3971285,0.3871488,0.1557664
706063,0.3971285,0.3871488,0.1557664
706066,0.3971285,0.3871488,0.1557664
706068,0.3971285,0.3871488,0.1557664
706071,0.3971285,0.3871488,0.1557664
706073,0.4010509,0.3911712,0.1557664
706076,0.4010509,0.3911712,0.1557664
706078,0.4049353,0.3941611,0.1594904
706080,0.4111691,0.4005627,0.1594904
706083,0.4111691,0.4005627,0.1594904
706085,0.4149588,0.4029978,0.1582588
706088,0.4149588,0.4029978,0.1582588
706091,0.4242849,0.4135417,0.1582588
706094,0.427501,0.4168407,0.1557664
706096,0.427501,0.4168407,0.1557664
706099,0.4660423,0.4609765,0.1356209
706101,0.5278606,0.5271187,0.09891172
706104,0.5278606,0.5271187,0.09891172
706106,0.5685511,0.5699261,0.07661668
706109,0.5685511,0.5699261,0.07661668
706111,0.6342734,0.6364292,0.03956468
706114,0.6673463,0.6688108,0.02797646
706116,0.6673463,0.6688108,0.02797646
706119,0.6954879,0.6966124,0
706121,0.6954879,0.6966124,0
706124,0.7438844,0.7441474,0
706126,0.7648944,0.7641266,-0.01978234
706129,0.7648944,0.7641266,-0.01978234
706131,0.8003972,0.798439,-0.03426402
706135,0.8158936,0.8132511,-0.03956468
706137,0.8158936,0.8132511,-0.03956468
706140,0.8416294,0.8376676,-0.04845664
706142,0.8416294,0.8376676,-0.04845664
706145,0.8524867,0.8474219,-0.05595291
706147,0.8629809,0.8570652,-0.05934703
706150,0.8629809,0.8570652,-0.05934703
706152,0.8767033,0.8697567,-0.0656106
706155,0.8775957,0.8697567,-0.06852804
706157,0.8775957,0.8697567,-0.06852804
706160,0.8798226,0.8711056,-0.07401875
706162,0.8798226,0.8711056,-0.07401875
706165,0.884702,0.8742447,-0.07912937
706167,0.8871316,0.8758101,-0.08392937
706170,0.8871316,0.8758101,-0.08392937
706172,0.8924097,0.8798226,-0.08846933
706176,0.8952556,0.8818219,-0.09065409
706178,0.8952556,0.8818219,-0.09065409
706181,0.9011378,0.8858072,-0.09691329
706183,0.9011378,0.8858072,-0.09691329
706186,0.9037398,0.8877931,-0.1008706
706188,0.9071976,0.8902143,-0.1027921
706191,0.9071976,0.8902143,-0.1027921
706193,0.9102123,0.8913127,-0.1083524
706196,0.9127884,0.8932863,-0.1119058
706198,0.9127884,0.8932863,-0.1119058
706201,0.8629809,0.8448781,-0.09278741
706203,0.8629809,0.8448781,-0.09278741
706206,0.8318071,0.8149337,-0.07661668
706208,0.7860898,0.7710097,-0.05934703
706210,0.7860898,0.7710097,-0.05934703
706213,0.7472962,0.7338206,-0.04423466
706215,0.7154584,0.7030433,-0.03426402
706219,0.7154584,0.7030433,-0.03426402
706221,0.6570037,0.6464956,-0.01978234
706224,0.6570037,0.6464956,-0.01978234
706226,0.6305605,0.6202354,-0.01978234
706229,0.6074851,0.598071,0
706231,0.6074851,0.598071,0
706234,0.5657911,0.5574291,0
706236,0.5489398,0.5414024,0
706239,0.5489398,0.5414024,0
706241,0.533392,0.5260038,0
706244,0.533392,0.5260038,0
706246,0.5082192,0.501241,0.01978234
706249,0.4977152,0.4917827,0.01978234
706251,0.4977152,0.4917827,0.01978234
706254,0.4885893,0.4829499,0.01978234
706256,0.4885893,0.4829499,0.01978234
706259,0.4780633,0.4735395,0.02797646
706262,0.4735395,0.4689721,0.02797646
706265,0.4735395,0.4689721,0.02797646
706267,0.5035778,0.4969283,0.01978234
706270,0.5640592,0.5532007,0
706272,0.5640592,0.5532007,0
706275,0.5938025,0.5808088,-0.01978234
706277,0.5938025,0.5808088,-0.01978234
706280,0.6180231,0.6032831,-0.03956468
706282,0.6664661,0.6486109,-0.05934703
706285,0.6664661,0.6486109,-0.05934703
706287,0.6844273,0.6658786,-0.06852804
706290,0.7203645,0.7002546,-0.07912937
706292,0.7203645,0.7002546,-0.07912937
706295,0.7343537,0.7132671,-0.08392937
706297,0.7343537,0.7132671,-0.08392937
706300,0.7467723,0.7260464,-0.08622923
706302,0.7664279,0.7449358,-0.09278741
706306,0.7664279,0.7449358,-0.09278741
706308,0.7755645,0.7540734,-0.09487279
706311,0.7898148,0.7684676,-0.09691329
706313,0.7898148,0.7684676,-0.09691329
706316,0.7959845,0.7753122,-0.09691329
706318,0.7959845,0.7753122,-0.09691329
706321,0.8016186,0.7810954,-0.09691329
706323,0.8062432,0.7860898,-0.09487279
706326,0.8101172,0.7903101,-0.09487279
706328,0.8137322,0.7945082,-0.09691329
706331,0.8173313,0.7981939,-0.09278741
706333,0.8173313,0.7981939,-0.09278741
706336,0.8204377,0.8018627,-0.09487279
706338,0.8204377,0.8018627,-0.09487279
706340,0.8242449,0.8062432,-0.09278741
706343,0.8254311,0.8074558,-0.09278741
706345,0.8254311,0.8074558,-0.09278741
706349,0.8266156,0.8091505,-0.09065409
706351,0.8292154,0.8118062,-0.09065409
706354,0.8292154,0.8118062,-0.09065409
706356,0.8277984,0.8103587,-0.09065409
706359,0.8277984,0.8103587,-0.09065409
706361,0.8268523,0.8093922,-0.08622923
706364,0.8268523,0.8093922,-0.09065409
706366,0.8268523,0.8093922,-0.09065409
706369,0.8270888,0.8096339,-0.08846933
706371,0.8268523,0.8093922,-0.08392937
706374,0.8268523,0.8093922,-0.08392937
706376,0.8275619,0.8096339,-0.08622923
706379,0.8275619,0.8096339,-0.08622923
706381,0.8277984,0.8098756,-0.08846933
706384,0.8318071,0.8137322,-0.08846933
706386,0.8318071,0.8137322,-0.08846933
706390,0.8388348,0.8209146,-0.08846933
706392,0.8388348,0.8209146,-0.08846933
706395,0.8418618,0.8242449,-0.08392937
706397,0.8448781,0.8273254,-0.08622923
706400,0.8448781,0.8273254,-0.08622923
706402,0.8455727,0.8277984,-0.08622923
706405,0.8481144,0.8301588,-0.08622923
706407,0.8481144,0.8301588,-0.08622923
706410,0.8501883,0.8341562,-0.08622923
706412,0.8522572,0.8341562,-0.08622923
706415,0.8550079,0.8369665,-0.08392937
706417,0.8568369,0.8393012,-0.08392937
706420,0.8568369,0.8393012,-0.08392937
706422,0.8591176,0.8411642,-0.08392937
706425,0.8623004,0.8444148,-0.08156469
706427,0.8623004,0.8444148,-0.08156469
706430,0.8634343,0.8455727,-0.08156469
706433,0.8634343,0.8455727,-0.08156469
706436,0.864793,0.8474219,-0.08156469
706438,0.8654715,0.8478836,-0.08392937
706441,0.8654715,0.8478836,-0.08392937
706443,0.8659236,0.8481144,-0.08156469
706446,0.8634343,0.8453411,-0.08622923
706448,0.8634343,0.8453411,-0.08622923
706451,0.861165,0.8430232,-0.08622923
706453,0.861165,0.8430232,-0.08622923
706456,0.8595729,0.8411642,-0.08622923
706458,0.8577499,0.8395343,-0.08156469
706461,0.8577499,0.8395343,-0.08156469
706463,0.8577499,0.839068,-0.08622923
706466,0.8550079,0.8364988,-0.08846933
706468,0.8550079,0.8364988,-0.08846933
706470,0.8485757,0.829923,-0.08622923
706473,0.8485757,0.829923,-0.08622923
706476,0.8451096,0.8263788,-0.08622923
706479,0.8418618,0.8232948,-0.08622923
706481,0.8418618,0.8232948,-0.08622923
706484,0.8334522,0.8144533,-0.08622923
706486,0.828271,0.8096339,-0.08846933
706489,0.828271,0.8096339,-0.08846933
706491,0.8249568,0.8057577,-0.08846933
706494,0.8249568,0.8057577,-0.08846933
706496,0.8221055,0.8028382,-0.08846933
706499,0.8204377,0.800886,-0.08846933
706501,0.8204377,0.800886,-0.08846933
706504,0.8197219,0.8001527,-0.08846933
706506,0.8180492,0.798929,-0.08622923
706509,0.8180492,0.798929,-0.08622923
706511,0.8151737,0.7962303,-0.08622923
706514,0.8151737,0.7962303,-0.08622923
706516,0.8144533,0.7954926,-0.08156469
706520,0.8127698,0.7947544,-0.08156469
706522,0.8127698,0.7947544,-0.08156469
706525,0.8120472,0.7942618,-0.08392937
706527,0.8120472,0.7942618,-0.08392937
706530,0.8115651,0.7937689,-0.07912937
706532,0.8122882,0.7945082,-0.07912937
706535,0.8122882,0.7945082,-0.07912937
706537,0.812529,0.7947544,-0.08392937
706540,0.8118062,0.7940154,-0.07912937
706542,0.8118062,0.7940154,-0.07912937
706545,0.8108415,0.7932757,-0.07912937
706547,0.8108415,0.7932757,-0.07912937
706550,0.812529,0.7950006,-0.07912937
706552,0.814213,0.7962303,-0.07912937
706555,0.814213,0.7962303,-0.07912937
706557,0.81781,0.7996635,-0.08622923
706561,0.8194832,0.8011303,-0.08622923
706563,0.8194832,0.8011303,-0.08622923
706566,0.8221055,0.8028382,-0.09065409
706568,0.8221055,0.8028382,-0.09065409
706571,0.8230571,0.8033255,-0.09278741
706573,0.8221055,0.8021067,-0.09487279
706576,0.8221055,0.8021067,-0.09487279
706578,0.8209146,0.7999081,-0.09487279
706581,0.7803435,0.7620752,-0.07661668
706583,0.7803435,0.7620752,-0.07661668
706586,0.7470343,0.7306137,-0.06255726
706588,0.7470343,0.7306137,-0.06255726
706591,0.6786853,0.6664661,-0.03426402
706593,0.6449805,0.6345818,-0.01978234
706596,0.6449805,0.6345818,-0.01978234
706598,0.6103771,0.6016592,0
706600,0.5560232,0.5496522,0.01978234
706604,0.5560232,0.5496522,0.01978234
706606,0.5352231,0.5297108,0.02797646
706609,0.5352231,0.5297108,0.02797646
706611,0.5008504,0.4973219,0.03956468
706614,0.4841639,0.4817329,0.04423466
706616,0.4841639,0.4817329,0.04423466
706619,0.4698059,0.4677188,0.05233916
706621,0.4471871,0.4458725,0.05595291
706624,0.4471871,0.4458725,0.05595291
706626,0.4370072,0.4365593,0.05934703
706629,0.4370072,0.4365593,0.05934703
706631,0.429328,0.4288719,0.05595291
706634,0.4149588,0.4154301,0.05934703
706636,0.4149588,0.4154301,0.05934703
706639,0.4092611,0.409739,0.05934703
706641,0.403483,0.4049353,0.05595291
706644,0.403483,0.4049353,0.05595291
706647,0.393167,0.3946573,0.05934703
706650,0.393167,0.3946573,0.05934703
706652,0.3881583,0.3901695,0.05934703
706655,0.3835945,0.3856296,0.05595291
706657,0.3835945,0.3856296,0.05595291
706660,0.3800071,0.382573,0.05595291
706662,0.3800071,0.382573,0.05595291
706665,0.3774237,0.3810355,0.05595291
706667,0.3743001,0.3769049,0.05595291
706670,0.3743001,0.3769049,0.05595291
706672,0.3732531,0.3758652,0.05595291
706675,0.3722032,0.3748225,0.05595291
706677,0.3722032,0.3748225,0.05595291
706680,0.3700944,0.373777,0.05595291
706682,0.3695653,0.3727285,0.05595291
706685,0.3685048,0.3716771,0.05934703
706688,0.3669084,0.3706227,0.05934703
706691,0.3669084,0.3706227,0.05934703
706693,0.4284154,0.4252063,0.01978234
706696,0.4515415,0.4458725,0
706698,0.4515415,0.4458725,0
706701,0.4489339,0.4445539,0.01978234
706703,0.4489339,0.4445539,0.01978234
706706,0.4480613,0.4441136,0
706708,0.477244,0.4706381,0
706711,0.477244,0.4706381,0
706713,0.5337587,0.5226451,-0.01978234
706716,0.5612772,0.5475121,-0.03426402
706718,0.5612772,0.5475121,-0.03426402
706721,0.608772,0.5911604,-0.05233916
706723,0.608772,0.5911604,-0.05233916
706726,0.6293179,0.6103771,-0.06255726
706728,0.6227542,0.605226,-0.05233916
706731,0.6227542,0.605226,-0.05233916
706734,0.6032831,0.5881739,-0.03956468
706736,0.5878411,0.5747126,-0.03426402
706739,0.5878411,0.5747126,-0.03426402
706741,0.5337587,0.5256317,0
706744,0.5337587,0.5256317,0
706746,0.5143426,0.5078341,0.01978234
706749,0.4917827,0.4873863,0.02797646
706751,0.4917827,0.4873863,0.02797646
706754,0.4592754,0.4571402,0.05233916
706756,0.4441136,0.4432315,0.06255726
706759,0.4441136,0.4432315,0.06255726
706761,0.4320539,0.4316007,0.07132626
706764,0.4320539,0.4316007,0.07132626
706766,0.410693,0.410693,0.08622923
706769,0.4015385,0.4020255,0.09278741
706771,0.4015385,0.4020255,0.09278741
706775,0.393167,0.393167,0.09891172
706777,0.3800071,0.3794918,0.1083524
706780,0.3800071,0.3794918,0.1083524
706782,0.3789758,0.3784592,0.1101434
706785,0.3789758,0.3784592,0.1101434
706787,0.3784592,0.3774237,0.1153499
706790,0.3835945,0.3830841,0.1170339
706792,0.3835945,0.3830841,0.1170339
706795,0.3851218,0.3841043,0.1170339
706797,0.3851218,0.3841043,0.1170339
706800,0.3956476,0.3951527,0.1170339
706802,0.4102162,0.4102162,0.1186941
706805,0.4102162,0.4102162,0.1186941
706807,0.5344914,0.5341251,0.07912937
706810,0.7271236,0.7233464,0.01978234
706812,0.7271236,0.7233464,0.01978234
706816,0.825194,0.8204377,0
706818,0.825194,0.8204377,0
706821,0.9071976,0.9013549,0
706823,1.035521,1.029076,-0.02797646
706826,1.035521,1.029076,-0.02797646
706828,1.086965,1.080646,-0.03426402
706831,1.026792,1.021825,-0.01978234
706833,1.026792,1.021825,-0.01978234
706836,0.9416999,0.9381608,0
706838,0.9416999,0.9381608,0
706841,0.8636609,0.8613922,0.01978234
706843,0.8003972,0.798929,0.02797646
706846,0.8003972,0.798929,0.02797646
706848,0.6849989,0.6844273,0.05595291
706851,0.6324196,0.6321102,0.06852804
706853,0.6324196,0.6321102,0.06852804
706856,0.5885065,0.5885065,0.07912937
706859,0.5885065,0.5885065,0.07912937
706861,0.5078341,0.5078341,0.09278741
706864,0.4764233,0.4764233,0.09691329
706866,0.4764233,0.4764233,0.09691329
706869,0.4265846,0.4261257,0.1083524
706871,0.4078243,0.4078243,0.1101434
706874,0.4078243,0.4078243,0.1101434
706876,0.3916712,0.3911712,0.1136409
706879,0.3916712,0.3911712,0.1136409
706881,0.3774237,0.3769049,0.1170339
706884,0.3577275,0.3571801,0.1203313
706886,0.3577275,0.3571801,0.1203313
706889,0.3533245,0.3527702,0.1203313
706891,0.3477423,0.3477423,0.1203313
706894,0.3477423,0.3477423,0.1203313
706896,0.3432113,0.3420692,0.1203313
706899,0.3432113,0.3420692,0.1203313
706902,0.339197,0.3380413,0.1219466
706905,0.3357179,0.3351346,0.1219466
706907,0.3357179,0.3351346,0.1219466
706910,0.3345502,0.3339648,0.1235407
706912,0.3322025,0.3316129,0.1235407
706915,0.3322025,0.3316129,0.1235407
706917,0.3322025,0.3310224,0.1235407
706920,0.3322025,0.3310224,0.1235407
706922,0.3304307,0.3292442,0.1235407
706925,0.3292442,0.3280534,0.1235407
706927,0.3292442,0.3280534,0.1235407
706930,0.3274564,0.3262592,0.1235407
706932,0.3274564,0.3262592,0.1235407
706935,0.3268584,0.3268584,0.1235407
706937,0.3262592,0.324455,0.1235407
706940,0.3262592,0.3262592,0.1219466
706942,0.3286494,0.3274564,0.1219466
706946,0.3322025,0.3304307,0.1203313
706948,0.3322025,0.3304307,0.1203313
706951,0.3339648,0.332791,0.1186941
706953,0.3339648,0.332791,0.1186941
706956,0.3351346,0.332791,0.1186941
706958,0.3380413,0.3345502,0.1153499
706961,0.3380413,0.3345502,0.1153499
706963,0.3386196,0.3345502,0.1153499
706966,0.3380413,0.3345502,0.1153499
706968,0.3380413,0.3345502,0.1153499
706971,0.3380413,0.3345502,0.1136409
706973,0.3380413,0.3345502,0.1136409
706976,0.339197,0.3351346,0.1153499
706978,0.3403488,0.3368816,0.1136409
706981,0.3403488,0.3368816,0.1136409
706983,0.3409232,0.3374619,0.1136409
706987,0.3420692,0.3374619,0.1153499
706989,0.3420692,0.3374619,0.1153499
706992,0.3426407,0.3386196,0.1153499
706994,0.3426407,0.3386196,0.1153499
706996,0.3426407,0.339197,0.1186941
706999,0.3443497,0.3403488,0.1203313
707001,0.3443497,0.3403488,0.1203313
707004,0.3454843,0.3414966,0.1219466
707006,0.3454843,0.3420692,0.1235407
707009,0.3454843,0.3420692,0.1235407
707011,0.3466151,0.3414966,0.1251145
707014,0.3466151,0.3414966,0.1251145
707016,0.3477423,0.3426407,0.1266688
707019,0.3483046,0.3432113,0.1266688
707021,0.3483046,0.3432113,0.1266688
707024,0.3511023,0.3471792,0.1266688
707026,0.3516591,0.3488659,0.1251145
707030,0.3516591,0.3488659,0.1251145
707032,0.3544303,0.3511023,0.1251145
707035,0.3544303,0.3511023,0.1251145
707037,0.3544303,0.3511023,0.1251145
707040,0.3544303,0.3511023,0.1251145
707042,0.3544303,0.3511023,0.1251145
707045,0.3593647,0.3555328,0.1251145
707047,0.3615361,0.3571801,0.1219466
707050,0.3615361,0.3571801,0.1219466
707052,0.3626169,0.358274,0.1219466
707055,0.3626169,0.358274,0.1219466
707057,0.3706227,0.3663747,0.1186941
707060,0.3805216,0.3769049,0.1101434
707062,0.3805216,0.3769049,0.1101434
707065,0.4191812,0.416371,0.08622923
707067,0.4528397,0.4493696,0.06255726
707070,0.4528397,0.4493696,0.06255726
707073,0.466462,0.4622481,0.04845664
707076,0.466462,0.4622481,0.04845664
707078,0.4722982,0.4677188,0.04845664
707081,0.4714689,0.4668813,0.04423466
707083,0.4714689,0.4668813,0.04423466
707086,0.4722982,0.4668813,0.03956468
707088,0.4722982,0.4668813,0.03956468
707091,0.4673002,0.4618246,0.03956468
707093,0.4635163,0.4584226,0.03956468
707096,0.4635163,0.4584226,0.03956468
707098,0.4554249,0.4502396,0.03956468
707101,0.4454334,0.4401304,0.04423466
707103,0.4454334,0.4401304,0.04423466
707106,0.4727124,0.4656223,0.01978234
707108,0.4727124,0.4656223,0.01978234
707111,0.4961402,0.4881886,0
707113,0.6000308,0.5898349,0
707117,0.6000308,0.5898349,0
707119,0.6872803,0.6755064,-0.02797646
707122,0.858206,0.844183,-0.05595291
707124,0.858206,0.844183,-0.05595291
707126,0.9396197,0.9251386,-0.06852804
707129,0.9396197,0.9251386,-0.06852804
707131,1.009882,0.9948499,-0.07661668
707134,1.078108,1.063121,-0.08622923
707136,1.078108,1.063121,-0.08622923
707139,1.084983,1.072102,-0.07661668
707141,1.04399,1.032493,-0.0656106
707144,1.04399,1.032493,-0.0656106
707146,1.01375,1.003272,-0.05595291
707149,1.01375,1.003272,-0.05595291
707151,1.023547,1.0151,-0.04423466
707154,1.055362,1.050343,-0.02797646
707156,1.055362,1.050343,-0.02797646
707160,1.07611,1.072832,-0.02797646
707162,0.9968149,0.9952432,0
707165,0.9968149,0.9952432,0
707167,0.9337703,0.9335608,0.01978234
707170,0.9337703,0.9335608,0.01978234
707172,0.8833739,0.8842595,0.03956468
707175,0.9117159,0.9140738,0.04423466
707177,0.9117159,0.9140738,0.04423466
707180,0.9242921,0.9274623,0.04845664
707182,0.8813781,0.8842595,0.07132626
707185,0.8813781,0.8842595,0.07132626
707187,0.7699938,0.7712635,0.1101434
707190,0.7699938,0.7712635,0.1101434
707192,0.7066523,0.7069291,0.1235407
707195,0.6549156,0.6543178,0.1370561
707197,0.6549156,0.6543178,0.1370561
707201,0.5914913,0.5888388,0.1480375
707203,0.5388666,0.5344914,0.1570175
707206,0.5388666,0.5344914,0.1570175
707208,0.6243232,0.6246366,0.1370561
707211,0.6243232,0.6246366,0.1370561
707213,0.6564078,0.6578966,0.1297215
707216,0.7252374,0.7284679,0.1170339
707218,0.7252374,0.7284679,0.1170339
707221,0.7465102,0.7506924,0.1083524
707223,0.7465102,0.7506924,0.1083524
707226,0.7173703,0.721179,0.1136409
707228,0.6932335,0.6968932,0.1153499
707231,0.6932335,0.6968932,0.1153499
707233,0.7364823,0.7409853,0.1065312
707236,0.8028382,0.8086666,0.09487279
707238,0.8028382,0.8086666,0.09487279
707241,0.7517344,0.7569224,0.1027921
707244,0.7517344,0.7569224,0.1027921
707247,0.7102429,0.7151849,0.1101434
707249,0.7727842,0.7788376,0.09691329
707252,0.7727842,0.7788376,0.09691329
707254,0.7974581,0.8033255,0.09065409
707256,0.8460353,0.8527163,0.08156469
707259,0.8460353,0.8527163,0.08156469
707261,0.9316724,0.9387863,0.0656106
707264,0.9316724,0.9387863,0.0656106
707266,0.9701535,0.9771874,0.05595291
707269,1.003077,1.010269,0.04845664
707271,1.003077,1.010269,0.04845664
707274,1.059618,1.066795,0.03956468
707276,1.082636,1.090022,0.03426402
707279,1.082636,1.090022,0.03426402
707281,1.132806,1.140038,0.03426402
707284,1.176197,1.183164,0.03956468
707287,1.213698,1.220611,0.04423466
707290,1.223014,1.229874,0.03956468
707292,1.223014,1.229874,0.03956468
707295,1.24301,1.250075,0.03426402
707297,1.239542,1.246626,0.03426402
707300,1.239542,1.246626,0.03426402
707302,1.240173,1.247097,0.03426402
707305,1.240173,1.247097,0.03426402
707307,1.26625,1.273185,0.02797646
707310,1.28983,1.296639,0.03426402
707312,1.28983,1.296639,0.03426402
707315,1.306412,1.313284,0.03956468
707317,1.304763,1.311793,0.03426402
707320,1.304763,1.311793,0.03426402
707322,1.096108,1.102517,0.06255726
707325,1.096108,1.102517,0.06255726
707328,1.020483,1.026601,0.07132626
707331,1.007942,1.014329,0.06852804
707333,1.007942,1.014329,0.06852804
707336,0.9916978,0.9981881,0.0656106
707338,0.9065502,0.9127884,0.07401875
707341,0.9065502,0.9127884,0.07401875
707343,0.8362648,0.8420942,0.08392937
707346,0.8362648,0.8420942,0.08392937
707348,0.7783349,0.7833468,0.09487279
707351,0.8187665,0.8244823,0.08392937
707353,0.8187665,0.8244823,0.08392937
707356,0.8336869,0.8393012,0.08156469
707358,0.8336869,0.8393012,0.08156469
707361,0.8751395,0.881156,0.06852804
707363,0.9495632,0.9561348,0.05595291
707366,0.9495632,0.9561348,0.05595291
707368,0.9827783,0.9897227,0.04845664
707372,1.011237,1.017987,0.03956468
707374,1.011237,1.017987,0.03956468
707377,1.059063,1.065878,0.03426402
707379,1.059063,1.065878,0.03426402
707382,0.9775878,0.9841712,0.04423466
707384,0.9104272,0.9172792,0.05595291
707386,0.9104272,0.9172792,0.05595291
707389,0.867504,0.8737969,0.06255726
707391,0.8775957,0.8840382,0.06255726
707394,0.8775957,0.8840382,0.06255726
707396,0.8855863,0.8921905,0.06255726
707399,0.8855863,0.8921905,0.06255726
707401,0.7589878,0.7646385,0.08392937
707404,0.7107937,0.7165515,0.09278741
707406,0.7107937,0.7165515,0.09278741
707409,0.5791218,0.5828267,0.1136409
707411,0.5203939,0.5230194,0.1251145
707415,0.5203939,0.5230194,0.1251145
707417,0.4710537,0.4718838,0.132704
707420,0.4710537,0.4718838,0.132704
707422,0.393167,0.3911712,0.1467098
707425,0.3615361,0.3571801,0.1519511
707427,0.3615361,0.3571801,0.1519511
707430,0.3333784,0.3274564,0.1570175
707432,0.2934199,0.2839303,0.1631294
707435,0.2934199,0.2839303,0.1631294
707437,0.2755364,0.2646699,0.166689
707440,0.2755364,0.2646699,0.166689
707442,0.2517883,0.2390311,0.1690205
707445,0.2406627,0.2255535,0.1701742
707447,0.2406627,0.2255535,0.1701742
707450,0.234068,0.2193969,0.1690205
707452,0.2185032,0.2027088,0.1701742
707456,0.2185032,0.2027088,0.1701742
707458,0.2167048,0.2007689,0.1690205
707461,0.2167048,0.2007689,0.1690205
707463,0.2093567,0.191797,0.1701742
707466,0.20842,0.191797,0.1690205
707468,0.20842,0.191797,0.1690205
707471,0.2065338,0.1907741,0.1678588
707473,0.20842,0.1938267,0.165511
707476,0.20842,0.1938267,0.165511
707478,0.2065338,0.191797,0.165511
707481,0.2065338,0.191797,0.165511
707483,0.20842,0.1938267,0.165511
707486,0.2074791,0.191797,0.166689
707488,0.2074791,0.191797,0.166689
707491,0.3000144,0.2960753,0.1493534
707493,0.3000144,0.2960753,0.1493534
707496,0.4484978,0.450674,0.1235407
707499,0.4493696,0.4511079,0.1235407
707502,0.4493696,0.4511079,0.1235407
707504,0.4493696,0.4511079,0.1235407
707507,0.5241405,0.5278606,0.1136409
707509,0.5241405,0.5278606,0.1136409
707512,0.5858405,0.590498,0.1083524
707514,0.5709552,0.5753932,0.1136409
707516,0.5591815,0.563365,0.1186941
707519,0.5492961,0.5535544,0.1235407
707521,0.5492961,0.5535544,0.1235407
707524,0.4901886,0.4909863,0.14537
707526,0.4685547,0.4677188,0.1545051
707529,0.4685547,0.4677188,0.1545051
707531,0.4427898,0.4392403,0.1643245
707534,0.4427898,0.4392403,0.1643245
707536,0.4039677,0.3956476,0.1802258
707539,0.3876539,0.3758652,0.1866263
707542,0.3876539,0.3758652,0.1866263
707545,0.3626169,0.3454843,0.1988102
707547,0.4423477,0.4329587,0.1876719
707550,0.4423477,0.4329587,0.1876719
707552,0.5675176,0.5647526,0.1701742
707555,0.5675176,0.5647526,0.1701742
707557,0.5640592,0.5605795,0.1724585
707560,0.5609285,0.555319,0.1769387
707562,0.5609285,0.555319,0.1769387
707565,0.5392296,0.5319225,0.1802258
707567,0.5070629,0.4969283,0.1855749
707570,0.5070629,0.4969283,0.1855749
707572,0.4837596,0.4714689,0.191797
707575,0.4837596,0.4714689,0.191797
707577,0.4643598,0.4511079,0.1958353
707580,0.4302385,0.4135417,0.2055842
707582,0.4302385,0.4135417,0.2055842
707586,0.4149588,0.3961419,0.2112177
707588,0.4432315,0.4306931,0.183454
707591,0.4432315,0.4306931,0.183454
707593,0.4905876,0.4845679,0.1426525
707596,0.4905876,0.4845679,0.1426525
707598,0.4949555,0.4885893,0.1370561
707601,0.5028,0.4969283,0.1266688
707603,0.5028,0.4969283,0.1266688
707606,0.4992853,0.4933717,0.1266688
707608,0.4969283,0.4909863,0.1282043
707611,0.4969283,0.4909863,0.1282043
707613,0.4905876,0.4845679,0.1282043
707616,0.4905876,0.4845679,0.1282043
707618,0.4869847,0.4813265,0.1312212
707621,0.4821389,0.4756011,0.1312212
707623,0.4821389,0.4756011,0.1312212
707627,0.4796977,0.4735395,0.1341704
707629,0.4796977,0.4735395,0.1341704
707632,0.477244,0.4706381,0.1356209
707634,0.4764233,0.4702222,0.1370561
707637,0.4764233,0.4702222,0.1370561
707639,0.4764233,0.4698059,0.1356209
707642,0.4747775,0.468137,0.1370561
707644,0.4747775,0.468137,0.1370561
707646,0.4747775,0.4685547,0.1356209
707649,0.4747775,0.4685547,0.1356209
707651,0.4735395,0.4668813,0.1370561
707654,0.4727124,0.4668813,0.1356209
707656,0.4727124,0.4668813,0.1356209
707659,0.4735395,0.4668813,0.1356209
707661,0.4739525,0.4673002,0.1356209
707664,0.4739525,0.4673002,0.1356209
707666,0.4714689,0.4656223,0.132704
707670,0.4714689,0.4656223,0.132704
707672,0.4714689,0.4656223,0.1341704
707675,0.4677188,0.4618246,0.132704
707677,0.4677188,0.4618246,0.132704
707680,0.466462,0.4605518,0.1312212
707682,0.4605518,0.4558544,0.1312212
707685,0.4605518,0.4558544,0.1312212
707687,0.4584226,0.4541341,0.1297215
707690,0.4584226,0.4541341,0.1297215
707692,0.4558544,0.4515415,0.1282043
707695,0.4515415,0.4467493,0.1235407
707697,0.4515415,0.4467493,0.1235407
707700,0.4493696,0.4449939,0.1203313
707702,0.4476244,0.4436728,0.1186941
707705,0.4476244,0.4436728,0.1186941
707707,0.4419051,0.4374548,0.1153499
707710,0.4419051,0.4374548,0.1153499
707713,0.4401304,0.4361108,0.1136409
707716,0.4334104,0.4297835,0.1119058
707718,0.4334104,0.4297835,0.1119058
707721,0.4306931,0.4270431,0.1101434
707723,0.4228991,0.4196478,0.1083524
707726,0.4228991,0.4196478,0.1083524
707728,0.4201138,0.416371,0.1065312
707731,0.4201138,0.416371,0.1065312
707733,0.414487,0.410693,0.1065312
707736,0.4125943,0.4087828,0.1046783
707738,0.4125943,0.4087828,0.1046783
707741,0.4116447,0.4083038,0.1046783
707743,0.4102162,0.4068635,0.1046783
707746,0.4102162,0.4068635,0.1046783
707748,0.4092611,0.4059006,0.1046783
707751,0.4092611,0.4059006,0.1046783
707753,0.4078243,0.4044518,0.1027921
707757,0.4063823,0.4029978,0.1046783
707759,0.4063823,0.4029978,0.1046783
707762,0.4054182,0.4020255,0.1046783
707764,0.4054182,0.4020255,0.1046783
707767,0.4044518,0.4010509,0.1046783
707769,0.4044518,0.4010509,0.1065312
707772,0.4044518,0.4010509,0.1065312
707774,0.4039677,0.4000739,0.1046783
707776,0.4029978,0.4000739,0.1046783
707779,0.4029978,0.4000739,0.1046783
707781,0.4049353,0.4015385,0.1065312
707784,0.4049353,0.4015385,0.1065312
707786,0.4063823,0.4020255,0.1065312
707789,0.4063823,0.4029978,0.1083524
707791,0.4063823,0.4029978,0.1083524
707794,0.4068635,0.403483,0.1083524
707796,0.4083038,0.4044518,0.1083524
707800,0.4083038,0.4044518,0.1083524
707802,0.409739,0.4063823,0.1083524
707805,0.409739,0.4063823,0.1083524
707807,0.4087828,0.4054182,0.1083524
707810,0.4087828,0.4054182,0.1101434
707812,0.4087828,0.4054182,0.1101434
707815,0.410693,0.4073442,0.1083524
707817,0.4121198,0.4092611,0.1101434
707820,0.4121198,0.4092611,0.1101434
707822,0.4159008,0.4121198,0.1101434
707825,0.4159008,0.4121198,0.1101434
707827,0.4177785,0.4140146,0.1101434
707830,0.4210443,0.4177785,0.1101434
707832,0.4210443,0.4177785,0.1101434
707835,0.4228991,0.4196478,0.1101434
707837,0.4252063,0.4210443,0.1119058
707841,0.4252063,0.4210443,0.1119058
707843,0.427501,0.4238235,0.1119058
707846,0.427501,0.4238235,0.1119058
707848,0.427501,0.4228991,0.1136409
707851,0.4270431,0.4224361,0.1119058
707853,0.4270431,0.4224361,0.1119058
707856,0.4279585,0.4233615,0.1136409
707858,0.4284154,0.4242849,0.1101434
707861,0.4284154,0.4242849,0.1101434
707863,0.4288719,0.4252063,0.1119058
707866,0.4288719,0.4252063,0.1119058
707868,0.429328,0.4256662,0.1119058
707871,0.4302385,0.4265846,0.1101434
707873,0.4302385,0.4265846,0.1101434
707876,0.4320539,0.4279585,0.1119058
707878,0.4316007,0.4284154,0.1119058
707881,0.4316007,0.4284154,0.1119058
707884,0.4361108,0.4329587,0.1119058
707887,0.4361108,0.4329587,0.1119058
707889,0.4383485,0.4343124,0.1101434
707892,0.4387946,0.4352126,0.1119058
707894,0.4387946,0.4352126,0.1119058
707897,0.4383485,0.4343124,0.1101434
707899,0.4383485,0.4343124,0.1101434
707902,0.4396856,0.4361108,0.1101434
707904,0.4401304,0.4370072,0.1101434
707906,0.4401304,0.4370072,0.1101434
707909,0.4392403,0.4356619,0.1101434
707911,0.4387946,0.4352126,0.1101434
707914,0.4387946,0.4352126,0.1101434
707916,0.4392403,0.4356619,0.1083524
707919,0.4392403,0.4356619,0.1083524
707921,0.4383485,0.4338616,0.1101434
707924,0.4370072,0.4329587,0.1101434
707927,0.4370072,0.4329587,0.1101434
707930,0.4352126,0.4311472,0.1101434
707932,0.4338616,0.4302385,0.1083524
707935,0.4338616,0.4302385,0.1083524
707937,0.4329587,0.4297835,0.1101434
707940,0.4325065,0.4288719,0.1101434
707942,0.4316007,0.4279585,0.1101434
707945,0.4311472,0.427501,0.1083524
707947,0.4311472,0.427501,0.1083524
707950,0.4302385,0.4256662,0.1083524
707952,0.4288719,0.4252063,0.1065312
707955,0.4288719,0.4252063,0.1065312
707957,0.4270431,0.4233615,0.1083524
707960,0.4270431,0.4233615,0.1083524
707962,0.4261257,0.4233615,0.1065312
707965,0.4238235,0.4205793,0.1083524
707968,0.4238235,0.4205793,0.1083524
707971,0.4233615,0.4196478,0.1065312
707973,0.4219727,0.4182466,0.1065312
707976,0.4219727,0.4182466,0.1065312
707978,0.4191812,0.4159008,0.1065312
707981,0.4191812,0.4159008,0.1065312
707983,0.4182466,0.4154301,0.1065312
707986,0.4173099,0.4135417,0.1046783
707988,0.4173099,0.4135417,0.1046783
707991,0.4154301,0.4125943,0.1046783
707993,0.4154301,0.4125943,0.1046783
707996,0.4154301,0.4125943,0.1046783
707998,0.4154301,0.4125943,0.1046783
708001,0.4154301,0.4125943,0.1046783
708003,0.4149588,0.4111691,0.1065312
708006,0.4149588,0.4111691,0.1065312
708008,0.4149588,0.4111691,0.1065312
708012,0.414487,0.4111691,0.1083524
708014,0.4125943,0.4092611,0.1083524
708017,0.4125943,0.4092611,0.1083524
708019,0.409739,0.4073442,0.1083524
708022,0.409739,0.4073442,0.1083524
708024,0.4102162,0.4068635,0.1083524
708027,0.4087828,0.4059006,0.1065312
708029,0.4087828,0.4059006,0.1065312
708032,0.409739,0.4063823,0.1083524
708034,0.409739,0.4063823,0.1083524
708036,0.4102162,0.4068635,0.1083524
708039,0.409739,0.4073442,0.1065312
708041,0.409739,0.4073442,0.1065312
708044,0.4078243,0.4049353,0.1083524
708046,0.403483,0.4010509,0.1083524
708049,0.403483,0.4010509,0.1083524
708051,0.3990945,0.3956476,0.1083524
708055,0.3990945,0.3956476,0.1083524
708057,0.3981127,0.3946573,0.1101434
708060,0.3966355,0.3941611,0.1065312
708062,0.3966355,0.3941611,0.1065312
708065,0.3946573,0.3916712,0.1083524
708067,0.3916712,0.3891652,0.1065312
708070,0.3916712,0.3891652,0.1065312
708072,0.3916712,0.3891652,0.1083524
708075,0.3916712,0.3891652,0.1083524
708077,0.3921704,0.3886621,0.1083524
708080,0.393167,0.3896677,0.1065312
708082,0.393167,0.3896677,0.1065312
708085,0.393167,0.3901695,0.1065312
708087,0.393167,0.3896677,0.1065312
708090,0.393167,0.3896677,0.1065312
708092,0.3916712,0.3886621,0.1046783
708096,0.3916712,0.3886621,0.1046783
708098,0.392669,0.3896677,0.1065312
708101,0.393167,0.3906707,0.1065312
708103,0.393167,0.3906707,0.1065312
708106,0.3946573,0.3911712,0.1065312
708108,0.3946573,0.3921704,0.1065312
708111,0.3946573,0.3921704,0.1065312
708113,0.3956476,0.393167,0.1046783
708116,0.3956476,0.393167,0.1046783
708118,0.3981127,0.3946573,0.1065312
708121,0.3976209,0.3956476,0.1046783
708123,0.3976209,0.3956476,0.1046783
708126,0.3990945,0.3956476,0.1065312
708128,0.4005627,0.3976209,0.1027921
708131,0.4005627,0.3976209,0.1027921
708133,0.4015385,0.3986039,0.1027921
708136,0.4015385,0.3986039,0.1027921
708139,0.4020255,0.3986039,0.1008706
708142,0.4015385,0.3990945,0.1027921
708144,0.4015385,0.3990945,0.1027921
708147,0.4015385,0.3990945,0.1027921
708149,0.4010509,0.3976209,0.1046783
708152,0.4010509,0.3976209,0.1046783
708154,0.4010509,0.3976209,0.1046783
708157,0.4010509,0.3976209,0.1046783
708159,0.403483,0.4005627,0.1046783
708162,0.4039677,0.4010509,0.1027921
708164,0.4039677,0.4010509,0.1027921
708166,0.4039677,0.4010509,0.1065312
708169,0.4039677,0.4010509,0.1065312
708171,0.4039677,0.4010509,0.1065312
708174,0.403483,0.4005627,0.1065312
708176,0.403483,0.4005627,0.1065312
708179,0.4054182,0.4025119,0.1083524
708182,0.4073442,0.4039677,0.1101434
708185,0.4073442,0.4039677,0.1101434
708187,0.4087828,0.4054182,0.1101434
708190,0.4087828,0.4054182,0.1101434
708192,0.4092611,0.4063823,0.1101434
708195,0.410693,0.4083038,0.1101434
708197,0.410693,0.4083038,0.1101434
708200,0.4116447,0.4087828,0.1101434
708202,0.4125943,0.4092611,0.1101434
708205,0.4125943,0.4092611,0.1101434
708207,0.414487,0.4111691,0.1083524
708210,0.414487,0.4111691,0.1083524
708212,0.4149588,0.4116447,0.1065312
708215,0.4182466,0.4149588,0.1083524
708217,0.4182466,0.4149588,0.1083524
708220,0.4191812,0.416371,0.1083524
708222,0.4205793,0.4173099,0.1065312
708226,0.4205793,0.4173099,0.1065312
708228,0.4210443,0.4177785,0.1065312
708231,0.4210443,0.4177785,0.1065312
708233,0.4219727,0.4187142,0.1065312
708236,0.4238235,0.4201138,0.1065312
708238,0.4238235,0.4201138,0.1065312
708241,0.4247459,0.4210443,0.1065312
708243,0.4261257,0.4224361,0.1065312
708246,0.4261257,0.4224361,0.1065312
708248,0.4252063,0.4219727,0.1083524
708251,0.4252063,0.4219727,0.1083524
708253,0.4247459,0.4205793,0.1083524
708256,0.4224361,0.4191812,0.1065312
708258,0.4224361,0.4191812,0.1065312
708261,0.4215088,0.4182466,0.1046783
708263,0.4205793,0.4173099,0.1065312
708267,0.4187142,0.4154301,0.1065312
708269,0.4177785,0.4149588,0.1065312
708272,0.4177785,0.4149588,0.1065312
708274,0.4159008,0.4135417,0.1046783
708277,0.416371,0.4130683,0.1065312
708279,0.416371,0.4130683,0.1065312
708282,0.4173099,0.4130683,0.1065312
708284,0.4182466,0.414487,0.1083524
708287,0.4182466,0.414487,0.1083524
708289,0.4177785,0.4140146,0.1065312
708292,0.4177785,0.4140146,0.1065312
708294,0.416371,0.4135417,0.1083524
708297,0.4154301,0.4125943,0.1065312
708299,0.4154301,0.4125943,0.1065312
708301,0.4140146,0.410693,0.1065312
708304,0.4125943,0.409739,0.1046783
708306,0.4125943,0.409739,0.1046783
708310,0.4102162,0.4073442,0.1046783
708312,0.4102162,0.4073442,0.1046783
708315,0.4102162,0.4068635,0.1046783
708317,0.4111691,0.4078243,0.1065312
708320,0.4111691,0.4078243,0.1065312
708322,0.4121198,0.4087828,0.1065312
708325,0.4121198,0.4087828,0.1065312
708327,0.4125943,0.4092611,0.1065312
708330,0.4111691,0.4083038,0.1046783
708332,0.4111691,0.4083038,0.1046783
708335,0.409739,0.4063823,0.1065312
708337,0.410693,0.4073442,0.1065312
708340,0.410693,0.4073442,0.1065312
708342,0.4116447,0.4083038,0.1065312
708345,0.4116447,0.4078243,0.1065312
708347,0.4130683,0.4102162,0.1065312
708350,0.414487,0.410693,0.1046783
708353,0.414487,0.410693,0.1046783
708356,0.416371,0.4130683,0.1046783
708358,0.4168407,0.4140146,0.1065312
708361,0.4168407,0.4140146,0.1065312
708363,0.4173099,0.4140146,0.1065312
708366,0.4173099,0.4140146,0.1065312
708368,0.4154301,0.4125943,0.1046783
708371,0.414487,0.4116447,0.1046783
708373,0.414487,0.4116447,0.1046783
708376,0.4140146,0.4116447,0.1046783
708378,0.4140146,0.4116447,0.1046783
708381,0.4140146,0.4116447,0.1046783
708383,0.4125943,0.4102162,0.1046783
708386,0.4125943,0.4102162,0.1046783
708388,0.4092611,0.4068635,0.1027921
708391,0.4087828,0.4054182,0.1027921
708393,0.4087828,0.4054182,0.1027921
708397,0.4044518,0.4015385,0.1008706
708399,0.4025119,0.3995845,0.1027921
708402,0.4025119,0.3995845,0.1027921
708404,0.4000739,0.3981127,0.1008706
708407,0.4000739,0.3981127,0.1008706
708409,0.3966355,0.3936644,0.1008706
708412,0.3951527,0.393167,0.1027921
708414,0.3951527,0.393167,0.1027921
708417,0.393167,0.3911712,0.1008706
708419,0.3911712,0.3891652,0.1008706
708422,0.3911712,0.3891652,0.1008706
708424,0.3891652,0.386643,0.1008706
708427,0.3891652,0.386643,0.1008706
708429,0.386643,0.3841043,0.1008706
708431,0.3856296,0.3830841,0.09891172
708434,0.3856296,0.3830841,0.09891172
708436,0.3820612,0.3800071,0.09891172
708440,0.3800071,0.3779418,0.09691329
708442,0.3800071,0.3779418,0.09691329
708445,0.3779418,0.3758652,0.09891172
708447,0.3779418,0.3753442,0.09891172
708450,0.3779418,0.3753442,0.09691329
708452,0.3774237,0.3748225,0.09891172
708455,0.3774237,0.3748225,0.09891172
708457,0.382573,0.3810355,0.09487279
708460,0.382573,0.3810355,0.09487279
708462,0.3846134,0.382573,0.09487279
708465,0.3830841,0.3820612,0.09278741
708467,0.3830841,0.3820612,0.09278741
708470,0.3835945,0.382573,0.09278741
708472,0.3830841,0.382573,0.09278741
708475,0.3830841,0.382573,0.09278741
708477,0.3830841,0.3820612,0.09065409
708481,0.3830841,0.3820612,0.09065409
708483,0.3835945,0.3820612,0.09278741
708486,0.382573,0.3815487,0.09065409
708488,0.382573,0.3815487,0.09065409
708491,0.3851218,0.3846134,0.08846933
708493,0.3876539,0.3871488,0.09065409
708496,0.3876539,0.3871488,0.09065409
708498,0.3906707,0.3901695,0.09065409
708501,0.3906707,0.3901695,0.09065409
708503,0.3921704,0.3901695,0.09065409
708506,0.3941611,0.3921704,0.09065409
708508,0.3941611,0.3921704,0.09065409
708511,0.3941611,0.393167,0.09065409
708513,0.393167,0.3916712,0.09065409
708516,0.393167,0.3916712,0.09065409
708518,0.392669,0.3916712,0.09065409
708521,0.392669,0.3916712,0.09065409
708524,0.3921704,0.3911712,0.09065409
708527,0.3921704,0.3911712,0.09278741
708529,0.3921704,0.3911712,0.09278741
708532,0.3906707,0.3896677,0.09278741
708534,0.3891652,0.3881583,0.09487279
708537,0.3881583,0.386643,0.09487279
708539,0.3901695,0.3886621,0.09487279
708542,0.3901695,0.3886621,0.09487279
708544,0.3916712,0.3901695,0.09487279
708547,0.393167,0.3911712,0.09691329
708549,0.393167,0.3911712,0.09691329
708552,0.3946573,0.3936644,0.09691329
708554,0.3961419,0.3951527,0.09691329
708557,0.3961419,0.3951527,0.09691329
708559,0.3976209,0.3961419,0.09891172
708561,0.3976209,0.3961419,0.09891172
708564,0.3990945,0.3976209,0.09891172
708567,0.3995845,0.3986039,0.09891172
708570,0.3995845,0.3986039,0.09891172
708572,0.4005627,0.3990945,0.09691329
708575,0.4015385,0.4000739,0.09891172
708577,0.4015385,0.4000739,0.09891172
708580,0.4015385,0.4010509,0.09891172
708582,0.4015385,0.4010509,0.09891172
708585,0.4025119,0.4015385,0.1008706
708587,0.4015385,0.3990945,0.09891172
708590,0.4015385,0.3990945,0.09891172
708592,0.4010509,0.3990945,0.1008706
708595,0.4010509,0.3990945,0.1008706
708597,0.4005627,0.3990945,0.1008706
708600,0.4020255,0.4010509,0.1008706
708602,0.4020255,0.4010509,0.1008706
708605,0.4025119,0.4010509,0.09891172
708608,0.4025119,0.4010509,0.09891172
708611,0.4025119,0.4010509,0.09891172
708613,0.4015385,0.3995845,0.09891172
708616,0.4015385,0.3995845,0.09891172
708618,0.4000739,0.3986039,0.09891172
708621,0.3986039,0.3976209,0.09891172
708623,0.3986039,0.3976209,0.09891172
708626,0.3981127,0.3966355,0.09691329
708628,0.3976209,0.3961419,0.09891172
708631,0.3976209,0.3961419,0.09891172
708633,0.3981127,0.3961419,0.09691329
708636,0.3981127,0.3961419,0.09691329
708638,0.3986039,0.3966355,0.09691329
708641,0.4000739,0.3981127,0.09691329
708643,0.4000739,0.3981127,0.09691329
708646,0.4005627,0.3995845,0.09487279
708648,0.3990945,0.3976209,0.09487279
708652,0.3990945,0.3976209,0.09487279
708654,0.3956476,0.3946573,0.09487279
708657,0.3956476,0.3946573,0.09487279
708659,0.3936644,0.392669,0.09278741
708662,0.3921704,0.3911712,0.09278741
708664,0.3921704,0.3911712,0.09278741
708667,0.3901695,0.3891652,0.09278741
708669,0.3891652,0.3876539,0.09487279
708672,0.3891652,0.3876539,0.09487279
708674,0.386643,0.386643,0.09278741
708677,0.386643,0.386643,0.09278741
708679,0.382573,0.382573,0.09278741
708682,0.3810355,0.3805216,0.09278741
708684,0.3810355,0.3805216,0.09278741
708687,0.3794918,0.3784592,0.09278741
708689,0.3789758,0.3779418,0.09278741
708691,0.3789758,0.3779418,0.09278741
708695,0.3784592,0.3774237,0.09278741
708697,0.3784592,0.3774237,0.09278741
708700,0.3784592,0.3779418,0.09487279
708702,0.3789758,0.3779418,0.09487279
708705,0.3789758,0.3779418,0.09487279
708707,0.3784592,0.3774237,0.09278741
708710,0.3779418,0.3769049,0.09487279
708712,0.3779418,0.3769049,0.09487279
708715,0.3805216,0.3789758,0.09487279
708717,0.3805216,0.3789758,0.09487279
708720,0.3810355,0.3800071,0.09691329
708722,0.4092611,0.4078243,0.1027921
708725,0.4092611,0.4078243,0.1027921
708727,0.4532716,0.4498048,0.1170339
708730,0.4532716,0.4498048,0.1170339
708732,0.4562834,0.4528397,0.1186941
708736,0.4584226,0.4554249,0.1186941
708738,0.4584226,0.4554249,0.1186941
708741,0.4480613,0.4458725,0.1186941
708743,0.4449939,0.4423477,0.1186941
708746,0.4449939,0.4423477,0.1186941
708748,0.4861804,0.4825446,0.1312212
708751,0.4861804,0.4825446,0.1312212
708753,0.5024107,0.4981082,0.1370561
708756,0.4977152,0.4933717,0.1356209
708758,0.4977152,0.4933717,0.1356209
708761,0.4925778,0.4881886,0.132704
708763,0.4796977,0.4764233,0.1282043
708766,0.4796977,0.4764233,0.1282043
708768,0.4706381,0.4673002,0.1251145
708771,0.4639383,0.4605518,0.1235407
708773,0.4532716,0.450674,0.1203313
708776,0.4449939,0.4423477,0.1170339
708779,0.4449939,0.4423477,0.1170339
708782,0.427501,0.4256662,0.1119058
708784,0.4219727,0.4201138,0.1083524
708787,0.4219727,0.4201138,0.1083524
708789,0.4135417,0.4121198,0.1083524
708792,0.4135417,0.4121198,0.1083524
708794,0.4025119,0.4015385,0.1065312
708797,0.3986039,0.3971285,0.1046783
708799,0.3986039,0.3971285,0.1046783
708802,0.3951527,0.3941611,0.1027921
708804,0.3901695,0.3891652,0.1027921
708807,0.3901695,0.3891652,0.1027921
708809,0.3876539,0.386643,0.1008706
708812,0.3876539,0.386643,0.1008706
708814,0.3861367,0.3856296,0.1027921
708817,0.3815487,0.3805216,0.1027921
708819,0.3815487,0.3805216,0.1027921
708822,0.3794918,0.3789758,0.1008706
708825,0.3769049,0.3758652,0.1008706
708827,0.3769049,0.3758652,0.1008706
708830,0.373777,0.3727285,0.1008706
708832,0.373777,0.3727285,0.1008706
708835,0.3685048,0.3669084,0.1027921
708837,0.364769,0.3631561,0.1008706
708840,0.364769,0.3631561,0.1008706
708842,0.3620769,0.3609945,0.1008706
708845,0.3588198,0.358274,0.09891172
708847,0.3588198,0.358274,0.09891172
708850,0.3577275,0.3577275,0.09891172
708852,0.3577275,0.3577275,0.09891172
708855,0.3571801,0.3571801,0.09891172
708857,0.3588198,0.358274,0.09691329
708860,0.3588198,0.358274,0.09691329
708862,0.3577275,0.358274,0.09487279
708866,0.3577275,0.358274,0.09487279
708868,0.3566318,0.3571801,0.09278741
708871,0.354982,0.3555328,0.09278741
708873,0.354982,0.3555328,0.09278741
708876,0.354982,0.354982,0.09278741
708878,0.3538778,0.3544303,0.09278741
708881,0.3538778,0.3544303,0.09278741
708883,0.3516591,0.3522151,0.09278741
708886,0.3516591,0.3522151,0.09278741
708888,0.3511023,0.3516591,0.09278741
708891,0.3516591,0.3522151,0.09065409
708893,0.3516591,0.3522151,0.09065409
708896,0.3522151,0.3522151,0.09065409
708898,0.3538778,0.3544303,0.08846933
708901,0.3538778,0.3544303,0.08846933
708903,0.354982,0.3555328,0.09065409
708907,0.354982,0.3555328,0.09065409
708909,0.3571801,0.3571801,0.08846933
708912,0.3615361,0.3609945,0.08846933
708914,0.3615361,0.3609945,0.08846933
708917,0.3631561,0.3626169,0.09065409
708919,0.3642322,0.3636945,0.09065409
708922,0.3642322,0.3636945,0.09065409
708924,0.3642322,0.3636945,0.09278741
708927,0.3642322,0.3636945,0.09278741
708929,0.3642322,0.3636945,0.09487279
708932,0.3626169,0.3626169,0.09278741
708934,0.3626169,0.3626169,0.09278741
708937,0.3620769,0.3620769,0.09487279
708939,0.3636945,0.3631561,0.09691329
708942,0.3636945,0.3631561,0.09691329
708944,0.3631561,0.3636945,0.09691329
708947,0.3631561,0.3636945,0.09691329
708950,0.3631561,0.3636945,0.09691329
708952,0.3631561,0.3636945,0.09691329
708955,0.3631561,0.3636945,0.09691329
708957,0.3636945,0.3636945,0.09891172
708960,0.3636945,0.364769,0.09891172
708962,0.3636945,0.364769,0.09891172
708965,0.3642322,0.3642322,0.1008706
708967,0.3642322,0.3642322,0.1008706
708970,0.3636945,0.3636945,0.1008706
708972,0.3615361,0.3620769,0.1027921
708975,0.3615361,0.3620769,0.1027921
708977,0.3609945,0.3615361,0.1027921
708980,0.360452,0.3599087,0.1046783
708982,0.360452,0.3599087,0.1046783
708985,0.360452,0.3599087,0.1046783
708987,0.360452,0.3599087,0.1046783
708990,0.3615361,0.3609945,0.1046783
708993,0.3615361,0.3615361,0.1083524
708996,0.3615361,0.3615361,0.1083524
708998,0.409739,0.4068635,0.1203313
709001,0.409739,0.4068635,0.1203313
709003,0.4833549,0.477244,0.1384764
709006,0.4869847,0.4805128,0.1398823
709008,0.4869847,0.4805128,0.1398823
709011,0.4945601,0.4873863,0.1412742
709013,0.4714689,0.464781,0.1384764
709016,0.4714689,0.464781,0.1384764
709018,0.4379019,0.4329587,0.1312212
709021,0.4379019,0.4329587,0.1312212
709023,0.513962,0.5116726,0.1065312
709026,0.633656,0.633656,0.07132626
709028,0.633656,0.633656,0.07132626
709031,0.6240098,0.6249498,0.0656106
709033,0.6132555,0.6148488,0.05934703
709037,0.6132555,0.6148488,0.05934703
709039,0.5767518,0.5794597,0.06255726
709042,0.5767518,0.5794597,0.06255726
709044,0.5482264,0.5510744,0.0656106
709047,0.4897892,0.4941643,0.07401875
709049,0.4897892,0.4941643,0.07401875
709052,0.4609765,0.4660423,0.07912937
709054,0.4374548,0.4427898,0.08156469
709057,0.4374548,0.4427898,0.08156469
709059,0.3946573,0.4005627,0.09278741
709062,0.3946573,0.4005627,0.09278741
709064,0.3769049,0.3835945,0.09691329
709067,0.3626169,0.3690354,0.1008706
709069,0.3626169,0.3690354,0.1008706
709072,0.3380413,0.3454843,0.1083524
709074,0.3274564,0.3351346,0.1136409
709078,0.3274564,0.3351346,0.1136409
709080,0.3140353,0.3214254,0.1203313
709082,0.3140353,0.3214254,0.1203313
709085,0.3090104,0.3171355,0.1219466
709087,0.3032579,0.3109043,0.1266688
709090,0.3032579,0.3109043,0.1266688
709092,0.3006659,0.309643,0.1266688
709095,0.2967354,0.3051875,0.1297215
709097,0.2967354,0.3051875,0.1297215
709100,0.2940859,0.3039024,0.1312212
709102,0.2940859,0.3039024,0.1312212
709105,0.2914124,0.301316,0.1312212
