time,turnedAngle,pitchAngle,yawAngle
M	???starting,0.5482264,0.5414024,0.02797646
0,0.5453635,0.5374122,0.03426402
1,0.5453635,0.5374122,0.03426402
2,0.5403171,0.5315546,0.03956468
4,0.5403171,0.5315546,0.03956468
5,0.5359538,0.5263757,0.04423466
7,0.5359538,0.5263757,0.04423466
8,0.5492961,0.5406791,0.03956468
10,0.5492961,0.5406791,0.03956468
12,0.5602303,0.5524929,0.03426402
14,0.5602303,0.5524929,0.03426402
16,0.569239,0.5619739,0.03426402
19,0.5924829,0.5868416,0.01978234
21,0.5924829,0.5868416,0.01978234
23,0.5990517,0.5944612,0.01978234
25,0.5990517,0.5944612,0.01978234
27,0.6042554,0.6006827,0.01978234
29,0.6042554,0.6006827,0.01978234
32,0.6090934,0.6058724,0
34,0.6090934,0.6058724,0
36,0.6106976,0.6084505,0
38,0.6106976,0.6084505,0
40,0.6100564,0.6084505,0
43,0.6094146,0.6084505,0
46,0.6094146,0.6084505,0
48,0.6094146,0.6084505,0
50,0.6094146,0.6084505,0
52,0.6090934,0.6084505,0
54,0.6090934,0.6084505,0
56,0.608772,0.6084505,0
58,0.608772,0.6084505,0
61,0.605226,0.605226,0
63,0.605226,0.605226,0
65,0.6029587,0.6032831,-0.02797646
67,0.6029587,0.6032831,-0.02797646
69,0.6013339,0.6013339,-0.01978234
71,0.5791218,0.5794597,-0.01978234
74,0.5791218,0.5794597,-0.01978234
76,0.5467969,0.5457222,0
78,0.5467969,0.5457222,0
80,0.5464389,0.5457222,-0.01978234
82,0.5464389,0.5457222,-0.01978234
84,0.5460806,0.5453635,0
88,0.5460806,0.5453635,0
90,0.5514293,0.5507192,-0.01978234
92,0.5514293,0.5507192,-0.01978234
94,0.555319,0.5549665,0
96,0.555319,0.5549665,0
98,0.5584812,0.5584812,-0.01978234
100,0.5311863,0.5297108,0
103,0.5311863,0.5297108,0
105,0.5319225,0.53008,0
107,0.5319225,0.53008,0
109,0.5319225,0.530449,0
112,0.5319225,0.530449,0
114,0.5315546,0.53008,0
116,0.5315546,0.53008,0
118,0.5410409,0.5403171,0
121,0.5439265,0.5432066,-0.01978234
123,0.5439265,0.5432066,-0.01978234
125,0.53008,0.5289715,0
128,0.53008,0.5289715,0
131,0.5024107,0.5004597,0
133,0.5024107,0.5004597,0
135,0.4897892,0.4861804,0
137,0.4780633,0.4739525,0
140,0.4780633,0.4739525,0
142,0.4845679,0.4805128,0
144,0.4845679,0.4805128,0
146,0.4929749,0.4893896,0
149,0.4929749,0.4893896,0
151,0.4869847,0.4829499,0
153,0.4869847,0.4829499,0
155,0.4817329,0.4768338,0.01978234
158,0.4949555,0.4913847,0.01978234
160,0.4949555,0.4913847,0.01978234
162,0.4992853,0.4957456,0
164,0.4992853,0.4957456,0
166,0.5112901,0.5089886,0
169,0.5112901,0.5089886,0
172,0.5211454,0.5188877,0
174,0.5211454,0.5188877,0
176,0.5446455,0.5432066,0
179,0.5528469,0.5514293,0
181,0.5528469,0.5514293,0
183,0.5363187,0.5341251,0
185,0.5363187,0.5341251,0
188,0.5293413,0.5267473,0
190,0.5293413,0.5267473,0
192,0.5385033,0.5363187,0
194,0.5514293,0.5485832,0
197,0.5514293,0.5485832,0
199,0.5605795,0.5581307,0
201,0.5605795,0.5581307,0
203,0.5675176,0.5654452,0
206,0.5675176,0.5654452,0
208,0.5928131,0.5914913,0
210,0.5928131,0.5914913,0
212,0.6016592,0.6003569,0
216,0.6103771,0.6090934,0
218,0.6103771,0.6090934,0
220,0.6227542,0.6221254,0
222,0.6227542,0.6221254,0
225,0.6262009,0.6255757,0
227,0.6262009,0.6255757,0
229,0.629007,0.6286958,0
231,0.629007,0.6286958,0
233,0.6286958,0.6277614,-0.01978234
236,0.6277614,0.6274496,0
238,0.6277614,0.6274496,0
240,0.6262009,0.6258884,0
242,0.6262009,0.6258884,0
245,0.6252628,0.6252628,-0.01978234
247,0.6252628,0.6252628,-0.01978234
249,0.5868416,0.5858405,0
251,0.5726661,0.5709552,0
254,0.5726661,0.5709552,0
257,0.5514293,0.5489398,0
259,0.5514293,0.5489398,0
261,0.5337587,0.5308178,0
264,0.5192646,0.5151029,0
266,0.5226451,0.5192646,0
268,0.5226451,0.5192646,0
270,0.5256317,0.5222706,0
273,0.5348573,0.5319225,0
275,0.5348573,0.5319225,0
277,0.5467969,0.5450047,0
279,0.5467969,0.5450047,0
282,0.5374122,0.5348573,0
284,0.5374122,0.5348573,0
286,0.5293413,0.5263757,0
288,0.5319225,0.5293413,0
291,0.5319225,0.5293413,0
293,0.5399548,0.5370479,0
295,0.5399548,0.5370479,0
297,0.5514293,0.5489398,0
300,0.5514293,0.5489398,0
303,0.5671728,0.5650989,0
305,0.5671728,0.5650989,0
307,0.5730078,0.5706123,0
309,0.5855064,0.5841681,0
312,0.5855064,0.5841681,0
314,0.5921526,0.5908293,0
316,0.5921526,0.5908293,0
318,0.5977437,0.5964329,-0.01978234
321,0.5977437,0.5964329,-0.01978234
323,0.6061952,0.605226,0
325,0.6061952,0.605226,0
327,0.6100564,0.6090934,-0.01978234
330,0.6122975,0.6116581,0
332,0.6122975,0.6116581,0
334,0.5831623,0.5814822,0
336,0.5831623,0.5814822,0
339,0.5716401,0.5699261,0
342,0.5716401,0.5699261,0
344,0.5706123,0.5685511,0
346,0.5532007,0.5503638,0
349,0.5532007,0.5503638,0
351,0.5392296,0.5359538,0
353,0.5392296,0.5359538,0
355,0.5274898,0.5233933,0
357,0.5274898,0.5233933,0
360,0.4988932,0.4937682,0
362,0.4988932,0.4937682,0
364,0.4877876,0.4817329,0.01978234
366,0.4756011,0.4685547,0.02797646
369,0.4756011,0.4685547,0.02797646
371,0.4747775,0.468137,0.01978234
373,0.4747775,0.468137,0.01978234
375,0.4825446,0.4764233,0.01978234
378,0.4825446,0.4764233,0.01978234
380,0.4881886,0.4829499,0.01978234
382,0.4881886,0.4829499,0.01978234
385,0.4809199,0.4747775,0.01978234
388,0.4776538,0.4714689,0.01978234
390,0.4776538,0.4714689,0.01978234
392,0.4917827,0.4861804,0.01978234
394,0.4917827,0.4861804,0.01978234
397,0.5124369,0.5078341,0
399,0.5124369,0.5078341,0
401,0.5233933,0.5196414,0
403,0.5464389,0.5435666,0
406,0.5464389,0.5435666,0
408,0.5574291,0.5546138,0
410,0.5574291,0.5546138,0
412,0.5661368,0.5637122,0
415,0.5661368,0.5637122,0
417,0.583833,0.5821548,0
419,0.583833,0.5821548,0
421,0.590498,0.5888388,0
423,0.5993783,0.5974163,0
427,0.5993783,0.5974163,0
429,0.6058724,0.6045791,0
431,0.5928131,0.5908293,0
433,0.5824909,0.5791218,0
436,0.5824909,0.5791218,0
438,0.5733491,0.5695826,0
440,0.5733491,0.5695826,0
442,0.5760729,0.5719823,0.01978234
445,0.5787839,0.5747126,0.01978234
447,0.5787839,0.5747126,0.01978234
449,0.5841681,0.5804718,0
451,0.5841681,0.5804718,0
454,0.5881739,0.5848376,0
456,0.5881739,0.5848376,0
458,0.5941319,0.5908293,0
460,0.6016592,0.5993783,0
463,0.6016592,0.5993783,0
465,0.5881739,0.5848376,0.01978234
467,0.5881739,0.5848376,0.01978234
470,0.5767518,0.5726661,0
473,0.5767518,0.5726661,0
475,0.5781073,0.5740312,0.01978234
477,0.5781073,0.5740312,0.01978234
479,0.5787839,0.5753932,0
482,0.564406,0.5605795,0
484,0.564406,0.5605795,0
486,0.564406,0.5605795,0
488,0.564406,0.5605795,0
490,0.5374122,0.5322903,0.01978234
493,0.5374122,0.5322903,0.01978234
495,0.5256317,0.5200178,0.01978234
497,0.5112901,0.5047422,0.02797646
499,0.5112901,0.5047422,0.02797646
502,0.4988932,0.4917827,0.02797646
504,0.4988932,0.4917827,0.02797646
506,0.4885893,0.4813265,0.02797646
508,0.4885893,0.4813265,0.02797646
512,0.4792896,0.4718838,0.02797646
514,0.4792896,0.4718838,0.02797646
516,0.4677188,0.4597013,0.03426402
518,0.4643598,0.4554249,0.03426402
521,0.4643598,0.4554249,0.03426402
523,0.4639383,0.454995,0.03426402
525,0.4639383,0.454995,0.03426402
527,0.4614008,0.4524074,0.03426402
530,0.4614008,0.4524074,0.03426402
532,0.4579955,0.4484978,0.03426402
534,0.4579955,0.4484978,0.03426402
536,0.453703,0.4445539,0.03426402
539,0.450674,0.4410186,0.03426402
541,0.450674,0.4410186,0.03426402
543,0.4445539,0.4361108,0.02797646
545,0.4445539,0.4361108,0.02797646
548,0.4414621,0.4334104,0.02797646
550,0.4414621,0.4334104,0.02797646
552,0.4396856,0.4306931,0.02797646
555,0.4379019,0.4302385,0
557,0.4379019,0.4302385,0
560,0.4379019,0.4288719,0.02797646
562,0.4379019,0.4288719,0.02797646
564,0.4383485,0.429328,0.02797646
566,0.4383485,0.429328,0.02797646
569,0.4392403,0.4311472,0.02797646
571,0.4392403,0.4311472,0.02797646
573,0.4396856,0.4325065,0
575,0.4739525,0.4685547,0
578,0.4739525,0.4685547,0
580,0.4945601,0.4905876,0
582,0.4945601,0.4905876,0
584,0.5116726,0.508604,0
587,0.5116726,0.508604,0
589,0.5403171,0.5385033,0
591,0.5403171,0.5385033,0
593,0.5524929,0.5510744,0
596,0.5626699,0.5612772,0
599,0.5626699,0.5612772,0
601,0.5712977,0.5706123,0
603,0.5712977,0.5706123,0
606,0.5791218,0.5784457,0
608,0.5791218,0.5784457,0
610,0.5791218,0.5784457,0
612,0.5791218,0.5784457,0
615,0.5678623,0.5668277,0
617,0.5584812,0.5570779,0
619,0.5584812,0.5570779,0
621,0.5510744,0.5489398,0
623,0.5510744,0.5489398,0
626,0.5570779,0.5549665,0
628,0.5570779,0.5549665,0
630,0.5695826,0.5678623,0
632,0.5753932,0.5740312,0
635,0.5753932,0.5740312,0
637,0.5808088,0.5794597,0
640,0.5808088,0.5794597,0
642,0.5688952,0.5664824,0
645,0.5688952,0.5664824,0
647,0.5503638,0.5471546,0
649,0.5503638,0.5471546,0
651,0.5549665,0.5521386,0
654,0.5588315,0.5560232,0
656,0.5588315,0.5560232,0
658,0.5712977,0.569239,0.01978234
660,0.5712977,0.569239,0.01978234
663,0.5757331,0.5740312,0
665,0.5757331,0.5740312,0
667,0.5637122,0.5612772,0
669,0.5446455,0.5410409,0
672,0.5446455,0.5410409,0
674,0.5500081,0.5464389,0
676,0.5500081,0.5464389,0
678,0.5570779,0.5539077,0
681,0.5570779,0.5539077,0
684,0.5664824,0.563365,0
686,0.5664824,0.563365,0
688,0.5736903,0.5709552,0
690,0.587175,0.5851721,0
693,0.587175,0.5851721,0
695,0.591822,0.5898349,0
697,0.591822,0.5898349,0
699,0.5964329,0.5944612,0
702,0.5964329,0.5944612,0
704,0.6000308,0.5983981,0
706,0.6061952,0.605226,0
708,0.6061952,0.605226,0
711,0.608772,0.6081289,0
713,0.608772,0.6081289,0
715,0.6090934,0.6084505,0
717,0.6090934,0.6084505,0
720,0.6094146,0.608772,0
722,0.6094146,0.608772,0
724,0.608772,0.608772,0
727,0.6081289,0.6081289,0
730,0.6081289,0.6081289,0
732,0.6071628,0.6071628,0
734,0.6071628,0.6071628,0
736,0.6068404,0.6065179,0
739,0.6068404,0.6065179,0
741,0.6058724,0.605226,0
743,0.6058724,0.605226,0
745,0.6049027,0.6042554,0
748,0.6049027,0.6045791,0
750,0.6049027,0.6045791,0
752,0.605226,0.6049027,0
754,0.605226,0.6049027,0
756,0.6061952,0.6058724,0
759,0.6061952,0.6058724,0
761,0.607807,0.6074851,0
763,0.6110179,0.6103771,0
765,0.6110179,0.6103771,0
769,0.6135744,0.6132555,0
771,0.6135744,0.6132555,0
773,0.615485,0.6148488,-0.01978234
775,0.6170725,0.6167554,0
778,0.618656,0.618656,0
780,0.618656,0.618656,0
782,0.6205508,0.6208661,0
784,0.6221254,0.6224399,0
787,0.6221254,0.6224399,0
789,0.6286958,0.628073,0
791,0.6286958,0.628073,0
793,0.6327289,0.6321102,0
796,0.6327289,0.6321102,0
798,0.6355062,0.6351982,0
800,0.6355062,0.6351982,0
802,0.6437659,0.6431577,0
805,0.644677,0.6440698,0
807,0.644677,0.6440698,0
809,0.6452838,0.6449805,0
812,0.6452838,0.6449805,0
814,0.6471007,0.646193,-0.02797646
817,0.6471007,0.646193,-0.02797646
819,0.6474031,0.6467983,0
821,0.6480073,0.6477052,0
823,0.6480073,0.6477052,0
826,0.6437659,0.6431577,0
828,0.6437659,0.6431577,0
830,0.640108,0.6391903,0
832,0.640108,0.6391903,0
835,0.6370438,0.6361217,-0.02797646
837,0.6370438,0.6361217,-0.02797646
839,0.6324196,0.6318005,0
841,0.6308707,0.63025,0
844,0.6308707,0.63025,0
846,0.6299395,0.629007,0
848,0.6299395,0.629007,0
850,0.6351982,0.6348901,0
854,0.6351982,0.6348901,0
856,0.6370438,0.6361217,0
858,0.6370438,0.6361217,0
860,0.6407191,0.6404136,0
863,0.6419396,0.6413296,0
865,0.6419396,0.6413296,0
867,0.6440698,0.6437659,0
869,0.6440698,0.6437659,0
872,0.6464956,0.6464956,0
874,0.6464956,0.6464956,0
876,0.64589,0.646193,0
878,0.64589,0.64589,0
880,0.64589,0.64589,0
883,0.6431577,0.6428534,0
885,0.6431577,0.6428534,0
887,0.6419396,0.6422443,0
889,0.6419396,0.6422443,0
892,0.6382713,0.6382713,-0.02797646
894,0.6382713,0.6382713,-0.02797646
897,0.6370438,0.6370438,0
899,0.6355062,0.635814,0
902,0.6355062,0.635814,0
904,0.633656,0.6339648,0
906,0.633656,0.6339648,0
908,0.6345818,0.6348901,0
911,0.6345818,0.6348901,0
913,0.635814,0.6355062,-0.02797646
915,0.6351982,0.6355062,0
917,0.6348901,0.6345818,0
920,0.6345818,0.6345818,0
922,0.6345818,0.6345818,0
924,0.6345818,0.6342734,0
926,0.6345818,0.6342734,0
929,0.6342734,0.6345818,0
931,0.6342734,0.6345818,0
933,0.6345818,0.6345818,-0.02797646
935,0.6345818,0.6345818,0
939,0.6345818,0.6345818,0
941,0.6361217,0.6355062,0
943,0.6361217,0.6355062,0
945,0.6370438,0.6361217,-0.02797646
947,0.6370438,0.6361217,-0.02797646
950,0.618656,0.6170725,0
952,0.618656,0.6170725,0
954,0.5914913,0.5881739,0.01978234
956,0.5811456,0.5764125,0.01978234
959,0.5811456,0.5764125,0.01978234
961,0.5726661,0.5668277,0.01978234
963,0.5726661,0.5668277,0.01978234
965,0.5595313,0.5510744,0.04423466
968,0.5595313,0.5510744,0.04423466
970,0.5542608,0.5446455,0.04845664
972,0.5507192,0.5399548,0.05233916
974,0.5507192,0.5399548,0.05233916
977,0.5475121,0.5355885,0.05595291
979,0.5442861,0.5315546,0.05934703
982,0.5432066,0.5297108,0.06255726
984,0.5432066,0.5297108,0.06255726
987,0.5417637,0.5278606,0.0656106
989,0.5417637,0.5278606,0.0656106
991,0.5403171,0.5260038,0.06255726
993,0.5410409,0.5271187,0.06255726
996,0.5410409,0.5271187,0.06255726
998,0.5439265,0.53008,0.0656106
1000,0.5439265,0.53008,0.0656106
1002,0.5457222,0.5311863,0.0656106
1005,0.5457222,0.5311863,0.0656106
1007,0.5467969,0.533025,0.06255726
1009,0.5467969,0.533025,0.0656106
1012,0.5467969,0.533025,0.0656106
1014,0.5457222,0.5326577,0.05934703
1016,0.5457222,0.5326577,0.05934703
1019,0.5406791,0.5282311,0.05934703
1021,0.5406791,0.5282311,0.05934703
1024,0.5370479,0.5241405,0.05595291
1027,0.533392,0.5203939,0.06255726
1029,0.533392,0.5203939,0.06255726
1031,0.5230194,0.5112901,0.05233916
1034,0.5230194,0.5112901,0.05233916
1036,0.5185105,0.5062904,0.04845664
1038,0.513962,0.5024107,0.04845664
1041,0.513962,0.5024107,0.04845664
1043,0.5385033,0.530449,0.03956468
1045,0.5385033,0.530449,0.03956468
1048,0.5567266,0.5500081,0.03426402
1050,0.5567266,0.5500081,0.03426402
1052,0.5719823,0.5664824,0.01978234
1054,0.5957764,0.5924829,0
1057,0.5957764,0.5924829,0
1059,0.6058724,0.6032831,0
1061,0.6058724,0.6032831,0
1064,0.614212,0.6119779,0
1067,0.6221254,0.6211812,0
1069,0.6221254,0.6211812,0
1072,0.6277614,0.6268256,0
1074,0.6277614,0.6268256,0
1076,0.6321102,0.6314908,0
1079,0.6321102,0.6314908,0
1081,0.6367366,0.635814,-0.01978234
1083,0.6373509,0.6370438,-0.01978234
1086,0.6373509,0.6370438,-0.01978234
1088,0.6382713,0.6376578,-0.01978234
1090,0.6382713,0.6376578,-0.01978234
1093,0.6345818,0.6342734,0
1095,0.633656,0.633656,0
1097,0.633656,0.633656,0
1100,0.6324196,0.6324196,-0.02797646
1102,0.6324196,0.6324196,-0.02797646
1104,0.6293179,0.629007,0
1107,0.6293179,0.629007,0
1110,0.628073,0.6277614,0
1112,0.6271377,0.6268256,-0.02797646
1115,0.6271377,0.6268256,-0.02797646
1117,0.6214961,0.6214961,-0.02797646
1119,0.6214961,0.6214961,-0.02797646
1122,0.6199199,0.6199199,-0.02797646
1124,0.6199199,0.6199199,-0.02797646
1126,0.6196041,0.6199199,0
1129,0.6192883,0.6196041,0
1131,0.6192883,0.6196041,0
1133,0.6177064,0.6173896,0
1136,0.6177064,0.6173896,0
1138,0.6173896,0.6170725,0
1140,0.6177064,0.6173896,-0.02797646
1142,0.6177064,0.6173896,-0.02797646
1145,0.618656,0.6183397,-0.02797646
1147,0.618656,0.6183397,-0.02797646
1149,0.6199199,0.6196041,0
1153,0.6199199,0.6196041,0
1155,0.6211812,0.6211812,0
1157,0.6255757,0.6249498,0
1160,0.6255757,0.6249498,0
1162,0.6271377,0.6268256,0
1164,0.6271377,0.6268256,0
1167,0.6324196,0.6324196,0
1169,0.6413296,0.6404136,0
1171,0.6413296,0.6404136,0
1174,0.6416347,0.6407191,0
1176,0.6416347,0.6407191,0
1178,0.6419396,0.6413296,-0.02797646
1181,0.6419396,0.6413296,-0.02797646
1183,0.6480073,0.6471007,0
1185,0.6528208,0.6516207,0
1188,0.6528208,0.6516207,0
1190,0.6578966,0.6567059,0
1192,0.6578966,0.6567059,0
1196,0.6652907,0.6641131,0
1198,0.6652907,0.6641131,0
1200,0.6667597,0.6661724,0
1203,0.6688108,0.6676395,0
1205,0.6688108,0.6676395,0
1207,0.6676395,0.6661724,0
1210,0.6676395,0.6661724,0
1212,0.6655847,0.6644077,0
1214,0.6635236,0.6629335,0
1217,0.6635236,0.6629335,0
1219,0.6617518,0.660568,0
1221,0.6617518,0.660568,0
1224,0.6407191,0.6388841,0
1226,0.6407191,0.6388841,0
1228,0.6236961,0.6211812,0
1230,0.5941319,0.5901666,0.01978234
1233,0.5941319,0.5901666,0.01978234
1235,0.5811456,0.5767518,0.01978234
1238,0.5811456,0.5767518,0.01978234
1241,0.5654452,0.5598809,0.02797646
1243,0.5521386,0.5457222,0.02797646
1245,0.5521386,0.5457222,0.02797646
1248,0.5414024,0.5344914,0.02797646
1250,0.5414024,0.5344914,0.02797646
1252,0.5278606,0.5192646,0.03956468
1255,0.5278606,0.5192646,0.03956468
1257,0.5237671,0.5143426,0.03956468
1259,0.5200178,0.5101407,0.04423466
1262,0.5200178,0.5101407,0.04423466
1264,0.5166202,0.5066768,0.04845664
1266,0.5166202,0.5066768,0.04845664
1269,0.5147229,0.5035778,0.04845664
1271,0.530449,0.5207698,0.04845664
1273,0.530449,0.5207698,0.04845664
1276,0.5432066,0.5344914,0.03956468
1278,0.5535544,0.5453635,0.03426402
1281,0.5539077,0.5460806,0.03956468
1284,0.5539077,0.5460806,0.03956468
1286,0.5539077,0.5460806,0.03956468
1288,0.5496522,0.5414024,0.03956468
1291,0.5496522,0.5414024,0.03956468
1293,0.5460806,0.5374122,0.03956468
1295,0.5460806,0.5374122,0.03956468
1298,0.5385033,0.5297108,0.03956468
1300,0.5385033,0.5297108,0.03956468
1302,0.5326577,0.5233933,0.03956468
1305,0.5237671,0.5135812,0.04423466
1307,0.5237671,0.5135812,0.04423466
1309,0.5200178,0.5101407,0.04845664
1312,0.5200178,0.5101407,0.04845664
1314,0.5173771,0.5074486,0.04423466
1316,0.5475121,0.5399548,0.03426402
1318,0.5475121,0.5399548,0.03426402
1321,0.5668277,0.5612772,0.02797646
1324,0.5668277,0.5612772,0.02797646
1326,0.583833,0.5791218,0.01978234
1329,0.583833,0.5791218,0.01978234
1331,0.5938025,0.589503,0
1333,0.5908293,0.5865081,0.01978234
1336,0.5908293,0.5865081,0.01978234
1338,0.5885065,0.5845029,0.01978234
1340,0.5885065,0.5845029,0.01978234
1343,0.5997046,0.5961047,0
1345,0.5908293,0.587175,0
1347,0.5908293,0.587175,0
1350,0.583833,0.5801346,0
1352,0.583833,0.5801346,0
1354,0.5647526,0.5598809,0.01978234
1357,0.5647526,0.5598809,0.01978234
1359,0.5532007,0.5478694,0.01978234
1361,0.5439265,0.5385033,0.01978234
1364,0.5439265,0.5385033,0.01978234
1367,0.5245137,0.518133,0.02797646
1369,0.5245137,0.518133,0.02797646
1372,0.5326577,0.5267473,0.01978234
1374,0.5326577,0.5267473,0.01978234
1376,0.5326577,0.5267473,0.01978234
1379,0.5326577,0.5267473,0.01978234
1381,0.5326577,0.5267473,0.01978234
1383,0.5326577,0.5267473,0.01978234
1386,0.5326577,0.5267473,0.01978234
1388,0.5482264,0.5432066,0.01978234
1390,0.577091,0.5740312,0
1393,0.577091,0.5740312,0
1395,0.5881739,0.5855064,0
1397,0.5881739,0.5855064,0
1400,0.5974163,0.5951191,0
1402,0.5974163,0.5951191,0
1404,0.605226,0.6032831,0
1406,0.6189722,0.6173896,0
1410,0.6189722,0.6173896,0
1412,0.6246366,0.6230683,0
1414,0.6246366,0.6230683,0
1417,0.6286958,0.6271377,0
1419,0.6321102,0.6299395,0
1421,0.6321102,0.6299395,0
1424,0.6345818,0.6324196,0
1426,0.6345818,0.6324196,0
1428,0.6370438,0.6355062,0
1431,0.6370438,0.6355062,0
1433,0.6413296,0.6398023,0
1435,0.6428534,0.6413296,0
1438,0.6428534,0.6413296,0
1440,0.6443735,0.6431577,0
1442,0.6443735,0.6431577,0
1445,0.6464956,0.644677,0
1447,0.6471007,0.6452838,0
1449,0.6471007,0.6452838,0
1453,0.6489125,0.6471007,0
1455,0.6489125,0.6471007,0
1457,0.6471007,0.64589,0
1460,0.6471007,0.64589,0
1462,0.64589,0.6440698,0
1464,0.646193,0.6443735,0
1467,0.646193,0.6443735,0
1469,0.6471007,0.64589,0
1471,0.6471007,0.64589,0
1474,0.6474031,0.646193,0
1476,0.6474031,0.646193,0
1478,0.6483091,0.6471007,0
1481,0.6480073,0.6467983,0
1483,0.6480073,0.6467983,0
1485,0.6477052,0.6467983,0
1488,0.6477052,0.6467983,0
1490,0.6489125,0.6477052,-0.02797646
1492,0.6501176,0.6489125,0
1495,0.6501176,0.6489125,0
1498,0.6513204,0.6501176,0
1500,0.6513204,0.6501176,0
1502,0.6467983,0.6464956,0
1505,0.6467983,0.6464956,0
1507,0.6474031,0.6467983,0
1509,0.6477052,0.6471007,0
1512,0.6477052,0.6471007,0
1514,0.6483091,0.6474031,0
1516,0.6483091,0.6474031,0
1519,0.649214,0.6486109,0
1521,0.6501176,0.6498165,0
1523,0.6501176,0.6498165,0
1526,0.6510199,0.6504185,0
1528,0.6510199,0.6504185,0
1530,0.652521,0.6516207,0
1533,0.652521,0.6516207,0
1536,0.652221,0.6516207,-0.02797646
1538,0.6330382,0.6321102,0
1541,0.6330382,0.6321102,0
1543,0.6049027,0.6032831,0
1545,0.6049027,0.6032831,0
1548,0.5944612,0.5921526,0
1550,0.5767518,0.5736903,0
1552,0.5767518,0.5736903,0
1555,0.5650989,0.5612772,0
1557,0.5650989,0.5612772,0
1559,0.5675176,0.5640592,0
1562,0.5675176,0.5640592,0
1564,0.5609285,0.5574291,0
1566,0.5535544,0.5492961,0
1569,0.5535544,0.5492961,0
1571,0.5560232,0.5517841,0
1573,0.5560232,0.5517841,0
1575,0.5626699,0.5588315,0
1579,0.5626699,0.5588315,0
1581,0.577091,0.5740312,0
1583,0.5845029,0.5814822,0
1586,0.5845029,0.5814822,0
1588,0.5787839,0.5757331,0
1590,0.5787839,0.5757331,0
1593,0.569239,0.5661368,0
1595,0.5475121,0.5435666,0.01978234
1597,0.5475121,0.5435666,0.01978234
1600,0.5370479,0.5322903,0.01978234
1602,0.5370479,0.5322903,0.01978234
1604,0.5399548,0.5348573,0.01978234
1607,0.5399548,0.5348573,0.01978234
1609,0.5500081,0.5453635,0.01978234
1611,0.5647526,0.5602303,0
1614,0.5647526,0.5602303,0
1616,0.5602303,0.5556712,0.01978234
1618,0.5602303,0.5556712,0.01978234
1622,0.5482264,0.5417637,0.01978234
1624,0.5414024,0.5341251,0.02797646
1626,0.5414024,0.5341251,0.02797646
1629,0.5359538,0.5278606,0.03426402
1631,0.5359538,0.5278606,0.03426402
1633,0.518133,0.509757,0.03956468
1636,0.518133,0.509757,0.03956468
1638,0.5066768,0.4969283,0.04423466
1640,0.5020211,0.4925778,0.04423466
1643,0.5020211,0.4925778,0.04423466
1645,0.4985009,0.4877876,0.04423466
1647,0.4985009,0.4877876,0.04423466
1650,0.4937682,0.4833549,0.04845664
1652,0.4937682,0.4833549,0.04845664
1654,0.4925778,0.4813265,0.04423466
1657,0.5222706,0.5135812,0.03426402
1659,0.5222706,0.5135812,0.03426402
1661,0.533392,0.5260038,0.02797646
1664,0.533392,0.5260038,0.02797646
1667,0.5359538,0.5289715,0.03426402
1669,0.5374122,0.530449,0.02797646
1671,0.5374122,0.530449,0.02797646
1674,0.5293413,0.5211454,0.03426402
1676,0.5293413,0.5211454,0.03426402
1678,0.5263757,0.5188877,0.03426402
1681,0.5263757,0.5188877,0.03426402
1683,0.5507192,0.5446455,0.02797646
1685,0.5602303,0.5549665,0.01978234
1688,0.5602303,0.5549665,0.01978234
1690,0.5855064,0.5814822,0.01978234
1692,0.5855064,0.5814822,0.01978234
1695,0.5957764,0.5928131,0
1697,0.5848376,0.5811456,0
1699,0.5848376,0.5811456,0
1702,0.5818186,0.57743,0.01978234
1704,0.5818186,0.57743,0.01978234
1707,0.5875081,0.5831623,0
1710,0.5875081,0.5831623,0
1712,0.5941319,0.5908293,0
1714,0.6065179,0.6039315,0
1717,0.6065179,0.6039315,0
1719,0.6119779,0.6100564,0
1721,0.6119779,0.6100564,0
1724,0.598725,0.5961047,0
1726,0.5801346,0.5767518,0
1728,0.5801346,0.5767518,0
1731,0.5736903,0.5702693,0
1733,0.5753932,0.5723243,0
1735,0.5767518,0.5736903,0
1738,0.5767518,0.5736903,0
1740,0.5784457,0.5753932,0
1742,0.5934729,0.5911604,0
1745,0.5934729,0.5911604,0
1747,0.5865081,0.5834977,0
1750,0.5865081,0.5834977,0
1752,0.5764125,0.5726661,0
1755,0.5764125,0.5726661,0
1757,0.5723243,0.5688952,0
1759,0.556375,0.5507192,0.01978234
1762,0.556375,0.5507192,0.01978234
1764,0.5503638,0.5446455,0.02797646
1766,0.5503638,0.5446455,0.02797646
1769,0.5315546,0.5245137,0.02797646
1771,0.5248867,0.5169988,0.03426402
1773,0.5248867,0.5169988,0.03426402
1776,0.5188877,0.509757,0.03426402
1778,0.5188877,0.509757,0.03426402
1780,0.5166202,0.5078341,0.03956468
1783,0.5166202,0.5078341,0.03956468
1785,0.5158621,0.5062904,0.04845664
1787,0.5326577,0.5241405,0.03956468
1790,0.5326577,0.5241405,0.03956468
1793,0.55778,0.5510744,0.03426402
1795,0.55778,0.5510744,0.03426402
1798,0.5570779,0.5500081,0.03426402
1800,0.5570779,0.5496522,0.03426402
1802,0.5570779,0.5496522,0.03426402
1805,0.5706123,0.5640592,0.02797646
1807,0.5706123,0.5640592,0.02797646
1809,0.5821548,0.5764125,0.02797646
1812,0.5821548,0.5764125,0.02797646
1814,0.6036074,0.598725,0.02797646
1816,0.6132555,0.608772,0.01978234
1819,0.6132555,0.608772,0.01978234
1821,0.608772,0.6045791,0
1823,0.608772,0.6045791,0
1826,0.598725,0.5941319,0.01978234
1828,0.577091,0.5716401,0.01978234
1830,0.577091,0.5716401,0.01978234
1833,0.5664824,0.5605795,0.03426402
1836,0.5664824,0.5605795,0.03426402
1838,0.5500081,0.5432066,0.03426402
1840,0.5500081,0.5432066,0.03426402
1843,0.55778,0.5517841,0.02797646
1845,0.5695826,0.564406,0.01978234
1847,0.5695826,0.564406,0.01978234
1850,0.5808088,0.5767518,0
1852,0.5808088,0.5767518,0
1854,0.5898349,0.5861744,0
1857,0.5898349,0.5861744,0
1859,0.5801346,0.5760729,0
1861,0.5716401,0.5675176,0.01978234
1864,0.5716401,0.5675176,0.01978234
1866,0.5777687,0.5736903,0
1868,0.5777687,0.5736903,0
1871,0.5858405,0.5828267,0
1873,0.5944612,0.5921526,0
1875,0.5944612,0.5921526,0
1879,0.6065179,0.6045791,0
1881,0.6065179,0.6045791,0
1883,0.5964329,0.5944612,0
1886,0.5964329,0.5944612,0
1888,0.5811456,0.5787839,0
1890,0.583833,0.5814822,0
1893,0.583833,0.5814822,0
1895,0.5861744,0.5841681,0
1897,0.5861744,0.5841681,0
1900,0.5602303,0.5570779,0
1902,0.5503638,0.5467969,0
1904,0.5503638,0.5467969,0
1907,0.5226451,0.518133,0.01978234
1909,0.5226451,0.518133,0.01978234
1911,0.5112901,0.5062904,0
1914,0.5112901,0.5062904,0
1916,0.5233933,0.5192646,0.01978234
1918,0.5267473,0.5226451,0
1922,0.5267473,0.5226451,0
1924,0.5392296,0.5363187,0
1926,0.5392296,0.5363187,0
1928,0.5532007,0.5507192,0
1931,0.5532007,0.5507192,0
1933,0.5623221,0.5598809,0
1935,0.5743721,0.5723243,0
1938,0.5743721,0.5723243,0
1940,0.5647526,0.5616257,0
1942,0.5647526,0.5616257,0
1945,0.5482264,0.5442861,0.01978234
1947,0.5403171,0.5348573,0.01978234
1949,0.5403171,0.5348573,0.01978234
1952,0.5271187,0.5192646,0.03426402
1954,0.5271187,0.5192646,0.03426402
1956,0.518133,0.5082192,0.04423466
1959,0.518133,0.5082192,0.04423466
1961,0.5143426,0.5028,0.04845664
1964,0.509757,0.4969283,0.05934703
1967,0.509757,0.4969283,0.05934703
1969,0.5093729,0.4953507,0.05934703
1971,0.5093729,0.4953507,0.05934703
1974,0.5105241,0.4949555,0.06852804
1976,0.5124369,0.4953507,0.07401875
1978,0.5124369,0.4953507,0.07401875
1981,0.5226451,0.5051297,0.07661668
1983,0.5226451,0.5051297,0.07661668
1985,0.5363187,0.5177552,0.07912937
1988,0.5363187,0.5177552,0.07912937
1990,0.5442861,0.5260038,0.08156469
1992,0.5546138,0.5363187,0.08392937
1995,0.5546138,0.5363187,0.08392937
1997,0.5581307,0.5403171,0.08156469
1999,0.5581307,0.5403171,0.08156469
2002,0.5605795,0.5432066,0.08392937
2004,0.5821548,0.5678623,0.07132626
2007,0.5821548,0.5678623,0.07132626
2010,0.5983981,0.5861744,0.0656106
2012,0.5983981,0.5861744,0.0656106
2014,0.6293179,0.6211812,0.04423466
2016,0.6293179,0.6211812,0.04423466
2019,0.6437659,0.6370438,0.03956468
2021,0.6632286,0.659382,0.02797646
2023,0.6632286,0.659382,0.02797646
2026,0.6696879,0.6667597,0
2028,0.6696879,0.6667597,0
2030,0.6596788,0.6575991,0
2033,0.6596788,0.6575991,0
2035,0.6467983,0.6449805,0
2037,0.6361217,0.6345818,0
2040,0.6361217,0.6345818,0
2042,0.6394964,0.6385778,0
2044,0.6422443,0.6419396,0
2048,0.6696879,0.66998,0
2050,0.6923862,0.6935157,-0.01978234
2052,0.6923862,0.6935157,-0.01978234
2055,0.7187329,0.7200928,-0.04423466
2057,0.7187329,0.7200928,-0.04423466
2059,0.7252374,0.7265852,-0.04423466
2062,0.7252374,0.7265852,-0.04423466
2064,0.7330202,0.7346201,-0.04845664
2066,0.7354187,0.7370135,-0.05595291
2069,0.7354187,0.7370135,-0.05595291
2071,0.7209076,0.7225344,-0.05233916
2073,0.7209076,0.7225344,-0.05233916
2076,0.7072059,0.7088641,-0.04845664
2078,0.6963314,0.6980155,-0.04845664
2080,0.7013714,0.7027649,-0.04845664
2083,0.7058211,0.7072059,-0.04845664
2085,0.7058211,0.7072059,-0.04845664
2087,0.7096917,0.711069,-0.05233916
2091,0.7096917,0.711069,-0.05233916
2093,0.6909717,0.6923862,-0.04423466
2095,0.6844273,0.6855699,-0.04423466
2098,0.6844273,0.6855699,-0.04423466
2100,0.6717301,0.6726035,-0.03426402
2102,0.6717301,0.6726035,-0.03426402
2104,0.6673463,0.6679325,-0.03956468
2107,0.6673463,0.6679325,-0.03956468
2109,0.6673463,0.6679325,-0.03956468
2111,0.6673463,0.6679325,-0.03956468
2114,0.6673463,0.6679325,-0.03956468
2116,0.6673463,0.6679325,-0.02797646
2118,0.6673463,0.6679325,-0.02797646
2121,0.6673463,0.6676395,-0.03426402
2123,0.6749268,0.6755064,-0.03426402
2125,0.6749268,0.6755064,-0.03426402
2128,0.6778198,0.6783969,-0.03426402
2130,0.6778198,0.6783969,-0.03426402
2132,0.694925,0.6954879,-0.02797646
2136,0.694925,0.6954879,-0.02797646
2138,0.7209076,0.7209076,-0.01978234
2140,0.7459858,0.7462481,0
2143,0.7459858,0.7462481,0
2145,0.7674484,0.7674484,0
2147,0.7674484,0.7674484,0
2150,0.8072135,0.8074558,0
2152,0.8259051,0.8259051,0
2154,0.8259051,0.8259051,0
2157,0.8311011,0.8320423,0
2159,0.8311011,0.8320423,0
2161,0.8336869,0.8353283,0
2164,0.8336869,0.8353283,0
2166,0.8329825,0.8348597,0
2168,0.8332174,0.8357967,0
2171,0.8332174,0.8357967,0
2173,0.8529457,0.8561515,0
2176,0.8529457,0.8561515,0
2179,0.8842595,0.8888945,-0.02797646
2181,0.9080599,0.913217,-0.03956468
2183,0.9080599,0.913217,-0.03956468
2185,0.9287274,0.9341894,-0.04423466
2188,0.9287274,0.9341894,-0.04423466
2190,0.9691444,0.9753835,-0.06255726
2192,0.9691444,0.9753835,-0.06255726
2195,0.985562,0.9920924,-0.07132626
2197,1.000342,1.007165,-0.07661668
2199,1.000342,1.007165,-0.07661668
2202,1.025266,1.032682,-0.08846933
2204,1.025266,1.032682,-0.08846933
2206,1.03363,1.041738,-0.09065409
2209,1.03363,1.041738,-0.09065409
2211,1.04155,1.057584,-0.09891172
2213,1.034008,1.042865,-0.09487279
2216,1.034008,1.042865,-0.09487279
2219,1.02259,1.031735,-0.09065409
2221,1.02259,1.031735,-0.09065409
2224,1.0151,1.024884,-0.09065409
2226,1.017026,1.026792,-0.09278741
2228,1.017026,1.026792,-0.09278741
2231,1.018948,1.029076,-0.09487279
2233,1.018948,1.029076,-0.09487279
2235,1.029646,1.039482,-0.09691329
2238,1.029646,1.039482,-0.09691329
2240,1.012204,1.022016,-0.09278741
2242,0.9867525,0.9966185,-0.08846933
2245,0.9867525,0.9966185,-0.08846933
2247,0.9644893,0.9739782,-0.08392937
2249,0.9644893,0.9739782,-0.08392937
2252,0.9460534,0.9553158,-0.08156469
2254,0.9157847,0.9249271,-0.07132626
2256,0.9157847,0.9249271,-0.07132626
2259,0.90309,0.9123595,-0.0656106
2262,0.90309,0.9123595,-0.0656106
2264,0.8928481,0.902006,-0.06255726
2267,0.8928481,0.902006,-0.06255726
2269,0.8717791,0.8804895,-0.05595291
2271,0.8636609,0.8724523,-0.05233916
2273,0.8636609,0.8724523,-0.05233916
2276,0.8464977,0.8545501,-0.04423466
2278,0.8464977,0.8545501,-0.04423466
2280,0.840466,0.848345,-0.03956468
2283,0.8353283,0.8432553,-0.03426402
2285,0.8353283,0.8432553,-0.03426402
2287,0.828271,0.8353283,-0.02797646
2290,0.828271,0.8353283,-0.02797646
2292,0.8259051,0.8325126,-0.01978234
2294,0.8259051,0.8325126,-0.01978234
2297,0.82377,0.8301588,-0.01978234
2299,0.8204377,0.826142,-0.01978234
2301,0.8204377,0.826142,-0.01978234
2305,0.8187665,0.8247196,0
2307,0.8187665,0.8247196,0
2309,0.8192443,0.8247196,0
2312,0.8192443,0.8247196,0
2314,0.8204377,0.825194,0
2316,0.8213912,0.825194,0
2319,0.8213912,0.825194,0
2321,0.8213912,0.825194,0
2323,0.8213912,0.825194,0
2326,0.9048218,0.9078444,0
2328,0.9360726,0.9389946,0
2330,0.9360726,0.9389946,0
2333,0.9373261,0.9400361,0
2335,0.9373261,0.9400361,0
2337,0.9404523,0.9429458,0.01978234
2340,0.9404523,0.9429458,0.01978234
2342,0.9223848,0.9242921,0.01978234
2344,0.916212,0.917919,0.01978234
2348,0.916212,0.917919,0.01978234
2350,0.9043891,0.9063343,0.01978234
2352,0.9043891,0.9063343,0.01978234
2355,0.8882338,0.8899944,0.01978234
2357,0.8778186,0.8796002,0.01978234
2359,0.8778186,0.8796002,0.01978234
2361,0.8632076,0.8650193,0.01978234
2364,0.8632076,0.8650193,0.01978234
2366,0.8561515,0.858206,0
2368,0.8561515,0.858206,0
2371,0.8464977,0.8488063,0
2373,0.842791,0.8453411,0
2375,0.842791,0.8453411,0
2378,0.8379012,0.840466,0
2380,0.8379012,0.840466,0
2382,0.8341562,0.8367326,0
2385,0.8341562,0.8367326,0
2387,0.8292154,0.8320423,0
2390,0.8268523,0.829923,0
2393,0.8268523,0.829923,0
2395,0.8232948,0.8266156,0
2397,0.8232948,0.8266156,0
2400,0.8206762,0.8242449,0
2402,0.8187665,0.8221055,0
2404,0.8187665,0.8221055,0
2407,0.8139727,0.81781,-0.01978234
2409,0.8139727,0.81781,-0.01978234
2411,0.811324,0.8154138,-0.01978234
2414,0.811324,0.8154138,-0.01978234
2416,0.8067285,0.8106001,-0.01978234
2418,0.8045425,0.8081825,0
2421,0.8045425,0.8081825,0
2423,0.8003972,0.804056,0
2425,0.8003972,0.804056,0
2428,0.798439,0.8021067,0
2430,0.7950006,0.798684,0
2433,0.7950006,0.798684,0
2436,0.7932757,0.7974581,0
2438,0.7932757,0.7974581,0
2440,0.7922885,0.7959845,0
2443,0.7922885,0.7959845,0
2445,0.7925354,0.796476,0
2447,0.7925354,0.796476,0
2449,0.7945082,0.7981939,0
2452,0.7957386,0.7999081,0
2454,0.7957386,0.7999081,0
2456,0.798439,0.8025945,0
2459,0.8023506,0.8064859,0
2461,0.8023506,0.8064859,0
2463,0.8035691,0.8084246,0
2466,0.8035691,0.8084246,0
2468,0.8057577,0.8101172,0
2470,0.8057577,0.8101172,0
2473,0.8079404,0.812529,0
2476,0.811324,0.8156537,-0.01978234
2478,0.811324,0.8156537,-0.01978234
2481,0.812529,0.8168523,-0.01978234
2483,0.812529,0.8168523,-0.01978234
2485,0.8134917,0.81781,-0.01978234
2488,0.8134917,0.81781,-0.01978234
2490,0.812529,0.8173313,-0.01978234
2492,0.811324,0.8166127,-0.02797646
2495,0.811324,0.8166127,-0.02797646
2497,0.8235324,0.8287433,-0.02797646
2499,0.8235324,0.8287433,-0.02797646
2502,0.8434873,0.8485757,-0.01978234
2504,0.8547791,0.8595729,-0.01978234
2506,0.8547791,0.8595729,-0.01978234
2509,0.8713301,0.8764802,0
2511,0.8713301,0.8764802,0
2513,0.8956926,0.901572,-0.01978234
2516,0.8956926,0.901572,-0.01978234
2519,0.9159984,0.9221727,-0.01978234
2521,0.9530601,0.9598116,-0.02797646
2524,0.9530601,0.9598116,-0.02797646
2526,0.9693463,0.9769872,-0.02797646
2528,0.9693463,0.9769872,-0.02797646
2531,0.9414921,0.9479132,-0.02797646
2533,0.9069818,0.9123595,0
2535,0.9069818,0.9123595,0
2537,0.8720036,0.8760335,0
2540,0.8720036,0.8760335,0
2542,0.8663754,0.8702065,0
2544,0.8663754,0.8702065,0
2547,0.8613922,0.8650193,0
2549,0.8652454,0.8693066,0
2551,0.8652454,0.8693066,0
2554,0.8661495,0.8699816,0
2556,0.8661495,0.8699816,0
2558,0.8713301,0.8755867,0
2562,0.8713301,0.8755867,0
2564,0.8802673,0.8853652,0
2566,0.8844808,0.8895546,0
2569,0.8844808,0.8895546,0
2571,0.8893346,0.8943809,0
2573,0.8893346,0.8943809,0
2576,0.8746923,0.8800449,0
2578,0.8623004,0.8677295,0
2580,0.8623004,0.8677295,0
2583,0.8332174,0.8388348,-0.01978234
2585,0.8332174,0.8388348,-0.01978234
2587,0.8218675,0.8273254,-0.01978234
2590,0.8218675,0.8273254,-0.01978234
2592,0.7996635,0.8052719,-0.02797646
2594,0.7908052,0.796476,-0.02797646
2597,0.7908052,0.796476,-0.02797646
2599,0.7855918,0.7910526,-0.02797646
2601,0.7855918,0.7910526,-0.02797646
2605,0.7760689,0.7815963,-0.03426402
2607,0.7717707,0.7770769,-0.03426402
2609,0.7717707,0.7770769,-0.03426402
2612,0.7633579,0.7689767,-0.03956468
2614,0.7633579,0.7689767,-0.03956468
2616,0.7600183,0.7651502,-0.03956468
2619,0.7600183,0.7651502,-0.03956468
2621,0.7532945,0.758472,-0.04423466
2623,0.7553698,0.7602757,-0.04423466
2625,0.7553698,0.7602757,-0.04423466
2628,0.7561465,0.7615615,-0.04845664
2630,0.7561465,0.7615615,-0.04845664
2632,0.7553698,0.7600183,-0.04423466
2635,0.7538139,0.7587299,-0.04845664
2637,0.7538139,0.7587299,-0.04845664
2639,0.7446731,0.749388,-0.05233916
2642,0.7446731,0.749388,-0.05233916
2644,0.7386047,0.7436213,-0.05233916
2647,0.7386047,0.7436213,-0.05233916
2650,0.7236168,0.7287365,-0.04845664
2652,0.717643,0.7230757,-0.05233916
2654,0.717643,0.7230757,-0.05233916
2657,0.7055438,0.711069,-0.05595291
2659,0.7055438,0.711069,-0.05595291
2661,0.7010924,0.7063754,-0.05595291
2664,0.7010924,0.7063754,-0.05595291
2666,0.7002546,0.7060983,-0.05595291
2668,0.6982958,0.7035998,-0.05934703
2671,0.6982958,0.7035998,-0.05934703
2673,0.6988559,0.7044336,-0.05934703
2675,0.6988559,0.7044336,-0.05934703
2678,0.6991359,0.7047113,-0.06255726
2680,0.6988559,0.7044336,-0.06255726
2682,0.6988559,0.7044336,-0.06255726
2685,0.6980155,0.7041557,-0.06255726
2688,0.6980155,0.7041557,-0.06255726
2690,0.6968932,0.7030433,-0.06852804
2693,0.6968932,0.7030433,-0.06852804
2695,0.6946434,0.7008132,-0.06852804
2697,0.6985759,0.7047113,-0.06852804
2700,0.6985759,0.7047113,-0.06852804
2702,0.7016503,0.707759,-0.07132626
2704,0.7016503,0.707759,-0.07132626
2707,0.7088641,0.7151849,-0.07132626
2709,0.7132671,0.7195491,-0.07661668
2711,0.7132671,0.7195491,-0.07661668
2713,0.7170975,0.7238871,-0.07661668
2716,0.7170975,0.7238871,-0.07661668
2718,0.7173703,0.7244276,-0.07401875
2720,0.7173703,0.7244276,-0.07401875
2723,0.7173703,0.7244276,-0.07912937
2725,0.7170975,0.7241574,-0.07661668
2727,0.7170975,0.7241574,-0.07661668
2731,0.7162784,0.7238871,-0.07912937
2733,0.7162784,0.7238871,-0.07912937
2735,0.7160051,0.7238871,-0.07912937
2738,0.7157319,0.7233464,-0.07912937
2740,0.7157319,0.7233464,-0.07912937
2742,0.7140896,0.7222635,-0.07912937
2745,0.7140896,0.7222635,-0.07912937
2747,0.7113441,0.7195491,-0.07661668
2749,0.7113441,0.7195491,-0.07661668
2752,0.7088641,0.7168246,-0.07661668
2754,0.7047113,0.7129927,-0.07661668
2756,0.7047113,0.7129927,-0.07661668
2759,0.7027649,0.7107937,-0.07661668
2761,0.7027649,0.7107937,-0.07661668
2763,0.6980155,0.7066523,-0.07132626
2766,0.6980155,0.7066523,-0.07132626
2768,0.6957693,0.7038778,-0.07132626
2770,0.6909717,0.7002546,-0.06852804
2774,0.6909717,0.7002546,-0.06852804
2776,0.6892704,0.6982958,-0.06852804
2778,0.6892704,0.6982958,-0.06852804
2781,0.6889865,0.6974546,-0.0656106
2783,0.6895542,0.6982958,-0.06852804
2785,0.6895542,0.6982958,-0.06852804
2788,0.6901216,0.6985759,-0.0656106
2790,0.6901216,0.6985759,-0.0656106
2792,0.6898379,0.6985759,-0.0656106
2794,0.6898379,0.6985759,-0.0656106
2797,0.6901216,0.6982958,-0.06255726
2799,0.7263159,0.7340872,-0.06852804
2801,0.7263159,0.7340872,-0.06852804
2804,0.7399282,0.7478197,-0.06852804
2806,0.7399282,0.7478197,-0.06852804
2808,0.7722777,0.7800927,-0.07132626
2811,0.7850935,0.7927822,-0.07132626
2813,0.7850935,0.7927822,-0.07132626
2816,0.7942618,0.8021067,-0.07401875
2819,0.7942618,0.8021067,-0.07401875
2821,0.8096339,0.8173313,-0.08156469
2823,0.8096339,0.8173313,-0.08156469
2826,0.8146936,0.8225815,-0.08156469
2828,0.8240075,0.8315719,-0.08156469
2830,0.8240075,0.8315719,-0.08156469
2833,0.8247196,0.8322775,-0.07912937
2835,0.8247196,0.8322775,-0.07912937
2837,0.8273254,0.835094,-0.07912937
2840,0.8273254,0.835094,-0.07912937
2842,0.8266156,0.8346253,-0.08156469
2844,0.8266156,0.8346253,-0.08156469
2847,0.8266156,0.8346253,-0.08156469
2849,0.8266156,0.8346253,-0.08156469
2851,0.8266156,0.8346253,-0.08156469
2854,0.8268523,0.8339216,-0.08156469
2856,0.8035691,0.8106001,-0.07912937
2859,0.8035691,0.8106001,-0.07912937
2862,0.7689767,0.7763211,-0.07401875
2864,0.7689767,0.7763211,-0.07401875
2866,0.7643827,0.7717707,-0.07401875
2869,0.7643827,0.7717707,-0.07401875
2871,0.7579558,0.7654059,-0.07912937
2873,0.7587299,0.7666831,-0.08392937
2876,0.7587299,0.7666831,-0.08392937
2878,0.7600183,0.7684676,-0.09065409
2880,0.7600183,0.7684676,-0.09065409
2882,0.7446731,0.7530347,-0.08846933
2885,0.721179,0.7295417,-0.08392937
2887,0.721179,0.7295417,-0.08392937
2889,0.7022079,0.7107937,-0.07912937
2892,0.7022079,0.7107937,-0.07912937
2894,0.6726035,0.6818494,-0.07661668
2896,0.6726035,0.6818494,-0.07661668
2899,0.6581939,0.6676395,-0.07132626
2902,0.635814,0.645587,-0.0656106
2904,0.635814,0.645587,-0.0656106
2907,0.6277614,0.6373509,-0.0656106
2909,0.6277614,0.6373509,-0.0656106
2911,0.614212,0.6236961,-0.06255726
2914,0.605226,0.6148488,-0.06255726
2916,0.605226,0.6148488,-0.06255726
2918,0.5908293,0.6006827,-0.05595291
2921,0.5908293,0.6006827,-0.05595291
2923,0.5861744,0.5961047,-0.05934703
2925,0.5861744,0.5961047,-0.05934703
2928,0.5781073,0.5881739,-0.05595291
2930,0.5760729,0.5861744,-0.05934703
2932,0.5760729,0.5861744,-0.05934703
2935,0.5740312,0.583833,-0.05595291
2937,0.5719823,0.5818186,-0.05934703
2939,0.5723243,0.5824909,-0.05934703
2942,0.5723243,0.5824909,-0.05934703
2945,0.5723243,0.5818186,-0.05934703
2947,0.5740312,0.583833,-0.05934703
2950,0.5740312,0.583833,-0.05934703
2952,0.5753932,0.5858405,-0.05595291
2954,0.5753932,0.5858405,-0.05595291
2957,0.5784457,0.5888388,-0.05934703
2959,0.5814822,0.5921526,-0.05595291
2961,0.5814822,0.5921526,-0.05595291
2964,0.5878411,0.598725,-0.05233916
2966,0.5878411,0.598725,-0.05233916
2968,0.5951191,0.6065179,-0.05233916
2970,0.5951191,0.6065179,-0.05233916
2973,0.6019843,0.6135744,-0.04845664
2975,0.6113381,0.6230683,-0.04845664
2977,0.6113381,0.6230683,-0.04845664
2980,0.6388841,0.6507192,-0.04845664
2982,0.6388841,0.6507192,-0.04845664
2984,0.661456,0.6728944,-0.05233916
2988,0.7030433,0.7151849,-0.06255726
2990,0.7030433,0.7151849,-0.06255726
2992,0.7225344,0.7348864,-0.0656106
2995,0.7225344,0.7348864,-0.0656106
2997,0.758472,0.7710097,-0.07401875
2999,0.758472,0.7710097,-0.07401875
3002,0.7750598,0.7873334,-0.07661668
3004,0.8023506,0.8146936,-0.07912937
3006,0.8023506,0.8146936,-0.07912937
3009,0.8137322,0.8256681,-0.07661668
3011,0.8137322,0.8256681,-0.07661668
3013,0.8084246,0.8204377,-0.07661668
3016,0.7962303,0.8086666,-0.07401875
3018,0.7962303,0.8086666,-0.07401875
3020,0.7868362,0.7991739,-0.07132626
3023,0.7868362,0.7991739,-0.07132626
3025,0.7868362,0.7991739,-0.07132626
3027,0.7868362,0.7991739,-0.07132626
3031,0.7898148,0.8021067,-0.07132626
3033,0.7922885,0.8042993,-0.07132626
3035,0.7922885,0.8042993,-0.07132626
3038,0.7954926,0.8074558,-0.07401875
3040,0.7954926,0.8074558,-0.07401875
3042,0.7957386,0.8074558,-0.07661668
3045,0.7957386,0.8074558,-0.07661668
3047,0.7942618,0.8050289,-0.07661668
3049,0.7932757,0.8033255,-0.07912937
3052,0.7932757,0.8033255,-0.07912937
3054,0.7922885,0.8021067,-0.07912937
3056,0.7922885,0.8021067,-0.07912937
3058,0.7873334,0.7969672,-0.08156469
3061,0.7860898,0.7952467,-0.08392937
3063,0.7860898,0.7952467,-0.08392937
3065,0.7820969,0.7910526,-0.08392937
3068,0.7820969,0.7910526,-0.08392937
3070,0.7805943,0.7898148,-0.08156469
3073,0.7805943,0.7898148,-0.08156469
3076,0.7383398,0.747558,-0.07661668
3078,0.7219925,0.7316842,-0.07401875
3080,0.7219925,0.7316842,-0.07401875
3083,0.6786853,0.6884183,-0.0656106
3085,0.6786853,0.6884183,-0.0656106
3087,0.6620474,0.6720214,-0.06255726
3090,0.6305605,0.6407191,-0.05934703
3092,0.6305605,0.6407191,-0.05934703
3094,0.6183397,0.6286958,-0.05934703
3097,0.6183397,0.6286958,-0.05934703
3099,0.5961047,0.6071628,-0.05595291
3101,0.5961047,0.6071628,-0.05595291
3104,0.5875081,0.598071,-0.05595291
3106,0.5797972,0.590498,-0.05233916
3108,0.5797972,0.590498,-0.05233916
3111,0.5671728,0.5777687,-0.05233916
3113,0.5671728,0.5777687,-0.05233916
3116,0.564406,0.575053,-0.05233916
3119,0.564406,0.575053,-0.05233916
3121,0.5584812,0.569239,-0.05233916
3123,0.5584812,0.5685511,-0.05595291
3126,0.5584812,0.5685511,-0.05595291
3128,0.5567266,0.5668277,-0.05233916
3130,0.5567266,0.5668277,-0.05233916
3133,0.5574291,0.5675176,-0.05233916
3135,0.5574291,0.5678623,-0.05595291
3137,0.5574291,0.5678623,-0.05595291
3140,0.5661368,0.575053,-0.06852804
3142,0.5661368,0.575053,-0.06852804
3144,0.5730078,0.5811456,-0.07661668
3146,0.5781073,0.5858405,-0.08392937
3149,0.5845029,0.5911604,-0.09487279
3151,0.589503,0.5951191,-0.1027921
3153,0.589503,0.5951191,-0.1027921
3156,0.5954478,0.6000308,-0.1136409
3159,0.5954478,0.6000308,-0.1136409
3161,0.5964329,0.6010084,-0.1170339
3164,0.605226,0.6084505,-0.1266688
3166,0.605226,0.6084505,-0.1266688
3168,0.6113381,0.6135744,-0.1341704
3171,0.6113381,0.6135744,-0.1341704
3173,0.6211812,0.6224399,-0.1412742
3175,0.6211812,0.6224399,-0.1412742
3178,0.6249498,0.6258884,-0.1426525
3180,0.628073,0.629007,-0.14537
3182,0.628073,0.629007,-0.14537
3185,0.6283845,0.6293179,-0.14537
3187,0.6283845,0.6293179,-0.14537
3189,0.6308707,0.6311808,-0.1467098
3192,0.6330382,0.633656,-0.1480375
3194,0.6330382,0.633656,-0.1480375
3196,0.6407191,0.6394964,-0.1594904
3200,0.6407191,0.6394964,-0.1594904
3202,0.652221,0.6474031,-0.1758294
3204,0.652221,0.6474031,-0.1758294
3207,0.6549156,0.649214,-0.1791368
3209,0.6570037,0.6510199,-0.1823843
3211,0.6570037,0.6510199,-0.1823843
3214,0.6543178,0.6480073,-0.183454
3216,0.6543178,0.6480073,-0.183454
3218,0.6504185,0.6443735,-0.183454
3221,0.6504185,0.6416347,-0.1823843
3223,0.6407191,0.6355062,-0.1791368
3225,0.6314908,0.6271377,-0.1780411
3228,0.6314908,0.6271377,-0.1780411
3230,0.6311808,0.6271377,-0.1758294
3232,0.6311808,0.6271377,-0.1758294
3234,0.6314908,0.6274496,-0.1758294
3237,0.6314908,0.6274496,-0.1758294
3239,0.6314908,0.6274496,-0.1758294
3241,0.6376578,0.6339648,-0.1758294
3245,0.6376578,0.6339648,-0.1758294
3247,0.6398023,0.6361217,-0.1758294
3249,0.6398023,0.6361217,-0.1758294
3252,0.6467983,0.6437659,-0.1769387
3254,0.6495153,0.6467983,-0.1769387
3256,0.6495153,0.6467983,-0.1769387
3259,0.6537194,0.6510199,-0.1769387
3261,0.6537194,0.6510199,-0.1769387
3263,0.6552143,0.6528208,-0.1769387
3266,0.667053,0.6638185,-0.1823843
3268,0.667053,0.6638185,-0.1823843
3270,0.6714388,0.6676395,-0.1845175
3273,0.6714388,0.6676395,-0.1845175
3275,0.6792617,0.675796,-0.183454
3277,0.6792617,0.675796,-0.183454
3280,0.6821364,0.6786853,-0.183454
3282,0.6693957,0.6661724,-0.1780411
3284,0.6693957,0.6661724,-0.1780411
3288,0.6647022,0.661456,-0.1769387
3290,0.6647022,0.661456,-0.1769387
3292,0.7005339,0.6954879,-0.1855749
3295,0.7005339,0.6954879,-0.1855749
3297,0.7138155,0.708588,-0.1887116
3299,0.7576976,0.751474,-0.1988102
3302,0.7576976,0.751474,-0.1988102
3304,0.7745547,0.7677034,-0.2036718
3306,0.7745547,0.7677034,-0.2036718
3309,0.8055148,0.7981939,-0.2102893
3311,0.8175707,0.8098756,-0.2139789
3313,0.8175707,0.8098756,-0.2139789
3316,0.8376676,0.8296872,-0.2176059
3318,0.8376676,0.8296872,-0.2176059
3320,0.8455727,0.8376676,-0.220287
3322,0.8455727,0.8376676,-0.220287
3325,0.8242449,0.8170919,-0.2102893
3328,0.8168523,0.8101172,-0.2074791
3330,0.8168523,0.8101172,-0.2074791
3333,0.800886,0.7947544,-0.2017412
3335,0.800886,0.7947544,-0.2017412
3337,0.7783349,0.7730374,-0.191797
3340,0.7669383,0.762332,-0.1855749
3342,0.7669383,0.762332,-0.1855749
3344,0.7509531,0.7467723,-0.1780411
3347,0.7509531,0.7467723,-0.1780411
3349,0.7428315,0.7391344,-0.1735894
3351,0.7428315,0.7391344,-0.1735894
3354,0.7314168,0.7279305,-0.1678588
3356,0.7233464,0.719821,-0.165511
3358,0.7233464,0.719821,-0.165511
3361,0.7113441,0.7083117,-0.1594904
3363,0.7113441,0.7083117,-0.1594904
3365,0.7035998,0.7005339,-0.1582588
3368,0.6915378,0.6892704,-0.1519511
3371,0.6915378,0.6892704,-0.1519511
3373,0.6849989,0.6827098,-0.1506579
3376,0.6849989,0.6827098,-0.1506579
3378,0.675796,0.6734757,-0.1467098
3380,0.675796,0.6734757,-0.1467098
3383,0.66998,0.6679325,-0.14537
3385,0.6655847,0.6635236,-0.1426525
3387,0.6655847,0.6635236,-0.1426525
3390,0.6584912,0.6567059,-0.1412742
3392,0.6584912,0.6567059,-0.1412742
3394,0.6558113,0.6537194,-0.1398823
3397,0.6558113,0.6537194,-0.1398823
3399,0.6561096,0.6537194,-0.14537
3401,0.6587883,0.6555129,-0.1506579
3403,0.6587883,0.6555129,-0.1506579
3406,0.660568,0.6561096,-0.1545051
3408,0.660568,0.6561096,-0.1545051
3410,0.6596788,0.6555129,-0.1532334
3414,0.6578966,0.6537194,-0.1493534
3416,0.6578966,0.6537194,-0.1493534
3418,0.6570037,0.6531205,-0.1480375
3421,0.6570037,0.6531205,-0.1480375
3423,0.6602717,0.6555129,-0.1519511
3425,0.6602717,0.6555129,-0.1519511
3428,0.6635236,0.6587883,-0.1557664
3430,0.6702721,0.6635236,-0.165511
3432,0.6702721,0.6635236,-0.165511
3435,0.6752167,0.6679325,-0.1724585
3437,0.6752167,0.6679325,-0.1724585
3439,0.6792617,0.6702721,-0.1791368
3442,0.6844273,0.6743467,-0.1866263
3444,0.6844273,0.6743467,-0.1866263
3446,0.6884183,0.6778198,-0.1907741
3449,0.6884183,0.6778198,-0.1907741
3451,0.6915378,0.6801254,-0.191797
3453,0.6915378,0.6801254,-0.191797
3457,0.6937978,0.6835691,-0.1887116
3459,0.6937978,0.6844273,-0.1845175
3461,0.6937978,0.6844273,-0.1845175
3464,0.6988559,0.688134,-0.1887116
3466,0.6988559,0.688134,-0.1887116
3468,0.7024865,0.6921035,-0.1887116
3471,0.7049889,0.694925,-0.1887116
3473,0.7049889,0.694925,-0.1887116
3475,0.7044336,0.6946434,-0.1855749
3478,0.7044336,0.6946434,-0.1855749
3480,0.7030433,0.6940797,-0.1813082
3482,0.7030433,0.6940797,-0.1813082
3485,0.7063754,0.6966124,-0.1845175
3487,0.708588,0.6980155,-0.1866263
3489,0.708588,0.6980155,-0.1866263
3491,0.7091401,0.699975,-0.1813082
3494,0.7091401,0.699975,-0.1813082
3496,0.7102429,0.7019292,-0.1769387
3499,0.7102429,0.7019292,-0.1769387
3502,0.7113441,0.7033216,-0.1735894
3504,0.7116191,0.7047113,-0.1701742
3506,0.7116191,0.7047113,-0.1701742
3509,0.7138155,0.7074825,-0.166689
3511,0.7138155,0.7074825,-0.166689
3513,0.7154584,0.7091401,-0.1631294
3516,0.7184606,0.7121689,-0.1631294
3518,0.7184606,0.7121689,-0.1631294
3520,0.7241574,0.717643,-0.166689
3523,0.7241574,0.717643,-0.166689
3525,0.729005,0.7217214,-0.1735894
3527,0.729005,0.7217214,-0.1735894
3530,0.729005,0.7217214,-0.1735894
3532,0.7300779,0.7222635,-0.1724585
3534,0.7300779,0.7222635,-0.1724585
3537,0.7287365,0.7217214,-0.1701742
3539,0.7287365,0.7217214,-0.1701742
3542,0.7273927,0.7209076,-0.1678588
3545,0.7265852,0.719821,-0.1678588
3547,0.7265852,0.719821,-0.1678588
3549,0.7241574,0.717643,-0.166689
3552,0.7241574,0.717643,-0.166689
3554,0.7149112,0.7091401,-0.1643245
3556,0.7149112,0.7091401,-0.1643245
3559,0.709416,0.7038778,-0.1607126
3561,0.699975,0.694925,-0.1557664
3563,0.699975,0.694925,-0.1557664
3566,0.6960504,0.6918207,-0.1545051
3568,0.6960504,0.6918207,-0.1545051
3570,0.6932335,0.6889865,-0.1532334
3573,0.6932335,0.6889865,-0.1532334
3575,0.6861406,0.6821364,-0.1493534
3577,0.6818494,0.6783969,-0.1480375
3579,0.6818494,0.6783969,-0.1480375
3582,0.6818494,0.6783969,-0.1480375
3585,0.6818494,0.6783969,-0.1480375
3587,0.6818494,0.6783969,-0.1480375
3590,0.6847132,0.680988,-0.1480375
3592,0.6847132,0.680988,-0.1480375
3594,0.6864257,0.6824232,-0.1506579
3597,0.6864257,0.6824232,-0.1506579
3599,0.6915378,0.687565,-0.1493534
3601,0.6915378,0.687565,-0.1493534
3604,0.6940797,0.6892704,-0.1493534
3606,0.697174,0.6929511,-0.1493534
3608,0.697174,0.6929511,-0.1493534
3611,0.6985759,0.6940797,-0.1480375
3613,0.6985759,0.6940797,-0.1480375
3615,0.7024865,0.6985759,-0.1467098
3618,0.7041557,0.7002546,-0.14537
3620,0.7041557,0.7002546,-0.14537
3622,0.7472962,0.7430948,-0.1506579
3625,0.7472962,0.7430948,-0.1506579
3628,0.7633579,0.7595032,-0.1506579
3630,0.7633579,0.7595032,-0.1506579
3633,0.7654059,0.7618184,-0.1480375
3635,0.7664279,0.7631016,-0.1467098
3637,0.7664279,0.7631016,-0.1467098
3640,0.7633579,0.7600183,-0.1440177
3642,0.7633579,0.7600183,-0.1440177
3644,0.7602757,0.7574393,-0.1412742
3647,0.7540734,0.7509531,-0.1398823
3649,0.7540734,0.7509531,-0.1398823
3651,0.745461,0.7430948,-0.1370561
3654,0.745461,0.7430948,-0.1370561
3656,0.7628451,0.7600183,-0.1398823
3658,0.7628451,0.7600183,-0.1398823
3661,0.7900625,0.7870849,-0.1426525
3663,0.8067285,0.8033255,-0.1467098
3665,0.8067285,0.8033255,-0.1467098
3667,0.8327476,0.8292154,-0.1493534
3671,0.8327476,0.8292154,-0.1493534
3673,0.8211529,0.8175707,-0.1480375
3675,0.8211529,0.8175707,-0.1480375
3678,0.8050289,0.8016186,-0.1467098
3680,0.8130105,0.8086666,-0.1570175
3682,0.8130105,0.8086666,-0.1570175
3685,0.826142,0.8197219,-0.1724585
3687,0.826142,0.8197219,-0.1724585
3689,0.8118062,0.8060005,-0.1701742
3692,0.7912999,0.7853427,-0.1678588
3694,0.7912999,0.7853427,-0.1678588
3696,0.7967216,0.7898148,-0.1769387
3699,0.7967216,0.7898148,-0.1769387
3701,0.8055148,0.7962303,-0.1897456
3703,0.8055148,0.7962303,-0.1897456
3706,0.814213,0.8038125,-0.1978235
3708,0.8280347,0.8156537,-0.2112177
3710,0.8280347,0.8156537,-0.2112177
3714,0.8336869,0.8206762,-0.2176059
3716,0.8336869,0.8206762,-0.2176059
3718,0.8343908,0.8221055,-0.2112177
3721,0.8355626,0.8230571,-0.2093567
3723,0.8355626,0.8230571,-0.2093567
3725,0.8348597,0.8242449,-0.2007689
3728,0.8348597,0.8242449,-0.2007689
3730,0.835094,0.825194,-0.1968319
3732,0.835094,0.825194,-0.1968319
3735,0.8416294,0.8308656,-0.2007689
3737,0.8439512,0.8332174,-0.2017412
3739,0.8439512,0.8332174,-0.2017412
3742,0.8494976,0.8406988,-0.1897456
3744,0.8494976,0.8406988,-0.1897456
3746,0.8517979,0.8434873,-0.1866263
3749,0.8547791,0.848345,-0.1724585
3751,0.8547791,0.848345,-0.1724585
3753,0.8364988,0.8327476,-0.1532334
3756,0.8364988,0.8327476,-0.1532334
3759,0.8206762,0.8180492,-0.1412742
3761,0.8206762,0.8180492,-0.1412742
3763,0.8089085,0.8079404,-0.1219466
3766,0.8096339,0.8091505,-0.1119058
3768,0.8096339,0.8091505,-0.1119058
3770,0.8170919,0.8173313,-0.09691329
3773,0.8170919,0.8173313,-0.09691329
3775,0.8223435,0.8230571,-0.08846933
3777,0.8223435,0.8230571,-0.08846933
3780,0.8301588,0.8308656,-0.07912937
3782,0.8381346,0.8388348,-0.07401875
3784,0.8381346,0.8388348,-0.07401875
3787,0.8492672,0.8504184,-0.06852804
3789,0.8492672,0.8504184,-0.06852804
3791,0.8980926,0.8991814,-0.07132626
3794,0.916212,0.9174925,-0.07661668
3796,0.916212,0.9174925,-0.07661668
3799,0.9425307,0.9433607,-0.08392937
3802,0.9425307,0.9433607,-0.08392937
3804,0.9829774,0.9833755,-0.09278741
3806,0.9829774,0.9833755,-0.09278741
3809,0.978988,0.9793876,-0.1008706
3811,0.9781881,0.9787881,-0.1027921
3813,0.9781881,0.9787881,-0.1027921
3816,0.9549061,0.9557254,-0.1119058
3818,0.9549061,0.9557254,-0.1119058
3820,0.9466738,0.9475003,-0.1153499
3823,0.9650977,0.9659084,-0.1341704
3825,0.9650977,0.9659084,-0.1341704
3827,0.9725708,0.9733753,-0.1412742
3830,0.9725708,0.9733753,-0.1412742
3832,0.9833755,0.9833755,-0.1594904
3834,0.9833755,0.9833755,-0.1594904
3837,1.00132,0.9997552,-0.1876719
3840,1.005999,1.004247,-0.1948336
3842,1.005999,1.004247,-0.1948336
3844,1.014329,1.012204,-0.2065338
3847,1.014329,1.012204,-0.2065338
3849,0.9731742,0.9721684,-0.2027088
3851,0.9731742,0.9721684,-0.2027088
3854,0.9583834,0.9577706,-0.2017412
3856,0.9138597,0.9153573,-0.1897456
3858,0.9138597,0.9153573,-0.1897456
3861,0.8974388,0.8996165,-0.1876719
3863,0.8974388,0.8996165,-0.1876719
3865,0.867504,0.8706562,-0.1780411
3868,0.8425589,0.8467289,-0.1713202
3870,0.8425589,0.8467289,-0.1713202
3872,0.8522572,0.8554656,-0.1724585
3875,0.8522572,0.8554656,-0.1724585
3877,0.866827,0.8684058,-0.174713
3879,0.866827,0.8684058,-0.174713
3883,0.881156,0.8822656,-0.1735894
3885,0.9024397,0.9033066,-0.1724585
3887,0.9024397,0.9033066,-0.1724585
3890,0.8939433,0.8950371,-0.166689
3892,0.8939433,0.8950371,-0.166689
3894,0.8809339,0.8827091,-0.1570175
3897,0.8688563,0.8706562,-0.1532334
3899,0.8688563,0.8706562,-0.1532334
3901,0.8506485,0.8527163,-0.1440177
3904,0.8506485,0.8527163,-0.1440177
3906,0.8437192,0.8460353,-0.1412742
3908,0.8437192,0.8460353,-0.1412742
3911,0.8329825,0.8348597,-0.1356209
3913,0.8050289,0.8079404,-0.1282043
3915,0.8050289,0.8079404,-0.1282043
3918,0.7853427,0.7885751,-0.1235407
3920,0.7853427,0.7885751,-0.1235407
3922,0.7684676,0.7715172,-0.1219466
3926,0.7677034,0.7702479,-0.1235407
3928,0.7677034,0.7702479,-0.1235407
3930,0.7548515,0.7576976,-0.1235407
3932,0.7548515,0.7576976,-0.1235407
3935,0.7449358,0.747558,-0.1219466
3937,0.7449358,0.747558,-0.1219466
3939,0.7271236,0.7300779,-0.1235407
3942,0.711894,0.7151849,-0.1251145
3944,0.711894,0.7151849,-0.1251145
3946,0.708588,0.711069,-0.1266688
3949,0.708588,0.711069,-0.1266688
3951,0.7022079,0.7041557,-0.1312212
3953,0.7022079,0.7041557,-0.1312212
3956,0.6988559,0.7008132,-0.1312212
3958,0.6943616,0.6954879,-0.1370561
3960,0.6943616,0.6954879,-0.1370561
3963,0.694925,0.6952065,-0.1412742
3965,0.694925,0.6952065,-0.1412742
3968,0.6946434,0.6935157,-0.1493534
3971,0.6935157,0.6921035,-0.1519511
3973,0.6935157,0.6921035,-0.1519511
3975,0.7206361,0.719005,-0.1519511
3978,0.7206361,0.719005,-0.1519511
3980,0.7300779,0.7284679,-0.1519511
3982,0.7300779,0.7284679,-0.1519511
3985,0.733287,0.7308815,-0.1557664
3987,0.7343537,0.7311491,-0.1594904
3989,0.7343537,0.7311491,-0.1594904
3992,0.733287,0.7298098,-0.1619255
3994,0.733287,0.7298098,-0.1619255
3996,0.7314168,0.7279305,-0.165511
3999,0.7284679,0.7246976,-0.165511
4001,0.7284679,0.7246976,-0.165511
4003,0.7236168,0.7195491,-0.1643245
4006,0.7236168,0.7195491,-0.1643245
4008,0.7214502,0.7179157,-0.1619255
4011,0.7214502,0.7179157,-0.1619255
4013,0.7335538,0.7298098,-0.1619255
4016,0.7444103,0.7407211,-0.1631294
4018,0.7444103,0.7407211,-0.1631294
4020,0.7615615,0.7571809,-0.1643245
4023,0.7615615,0.7571809,-0.1643245
4025,0.7748073,0.7707559,-0.165511
4027,0.7748073,0.7707559,-0.165511
4030,0.7954926,0.7908052,-0.166689
4032,0.8045425,0.8001527,-0.1643245
4034,0.8045425,0.8001527,-0.1643245
4037,0.8182884,0.8146936,-0.1594904
4039,0.8182884,0.8146936,-0.1594904
4041,0.8254311,0.8223435,-0.1557664
4044,0.8362648,0.8341562,-0.1467098
4046,0.8362648,0.8341562,-0.1467098
4048,0.8796002,0.8769265,-0.1506579
4051,0.8796002,0.8769265,-0.1506579
4054,0.916212,0.9130027,-0.1532334
4056,0.916212,0.9130027,-0.1532334
4059,0.9549061,0.9524438,-0.1467098
4061,0.9705567,0.9681343,-0.1467098
4063,0.9705567,0.9681343,-0.1467098
4066,0.9805858,0.9787881,-0.1384764
4068,0.9805858,0.9787881,-0.1384764
4070,0.9857605,0.9841712,-0.1370561
4073,0.9857605,0.9845687,-0.132704
4075,0.9857605,0.9845687,-0.132704
4077,0.987149,0.9861575,-0.1312212
4080,0.987149,0.9861575,-0.1312212
4082,0.9853634,0.9845687,-0.1282043
4084,0.9853634,0.9845687,-0.1282043
4087,0.987149,0.9865541,-0.1282043
4089,0.9847674,0.9841712,-0.1266688
4091,0.9847674,0.9841712,-0.1266688
4094,0.9833755,0.9829774,-0.1266688
4097,0.9833755,0.9829774,-0.1266688
4099,0.9787881,0.9781881,-0.1282043
4101,0.9779881,0.9773876,-0.1266688
4104,0.9779881,0.9773876,-0.1266688
4106,0.9755841,0.9751828,-0.1266688
4108,0.9755841,0.9751828,-0.1266688
4111,0.974179,0.9739782,-0.1282043
4113,0.974179,0.9739782,-0.1282043
4115,0.9713628,0.9707584,-0.1282043
4118,0.9697499,0.9693463,-0.1297215
4120,0.9697499,0.9693463,-0.1297215
4122,0.9685385,0.9679322,-0.1312212
4125,0.9685385,0.9679322,-0.1312212
4127,0.9683364,0.96773,-0.1312212
4129,0.9683364,0.96773,-0.1312212
4132,0.9693463,0.9687405,-0.132704
4134,0.9723696,0.9717657,-0.132704
4136,0.9723696,0.9717657,-0.132704
4140,0.9735762,0.9731742,-0.132704
4142,0.9735762,0.9731742,-0.132704
4144,0.9749822,0.9743798,-0.1341704
4147,0.978988,0.9783881,-0.132704
4149,0.978988,0.9783881,-0.132704
4151,0.9833755,0.9833755,-0.1297215
4154,0.9833755,0.9833755,-0.1297215
4156,0.9873473,0.9869508,-0.1312212
4158,0.9873473,0.9869508,-0.1312212
4161,0.9911057,0.9903157,-0.1312212
4163,0.9785881,0.9783881,-0.1266688
4165,0.9785881,0.9783881,-0.1266688
4168,0.9559301,0.9557254,-0.1251145
4170,0.9559301,0.9557254,-0.1251145
4172,0.9369085,0.9373261,-0.1219466
4175,0.9213235,0.9215358,-0.1186941
4177,0.9213235,0.9215358,-0.1186941
4179,0.8948184,0.8948184,-0.1203313
4183,0.8948184,0.8948184,-0.1203313
4185,0.8831524,0.8833739,-0.1203313
4187,0.8831524,0.8833739,-0.1203313
4189,0.8650193,0.8652454,-0.1203313
4192,0.858206,0.857978,-0.1219466
4194,0.858206,0.857978,-0.1219466
4196,0.8476528,0.8474219,-0.1282043
4199,0.8476528,0.8474219,-0.1282043
4201,0.8434873,0.8430232,-0.1312212
4203,0.8353283,0.8339216,-0.1370561
4206,0.8353283,0.8339216,-0.1370561
4208,0.8268523,0.8256681,-0.1440177
4210,0.8268523,0.8256681,-0.1440177
4213,0.8225815,0.8206762,-0.1493534
4215,0.8225815,0.8206762,-0.1493534
4217,0.8158936,0.8134917,-0.1582588
4220,0.8130105,0.8103587,-0.1594904
4222,0.8130105,0.8103587,-0.1594904
4225,0.7940154,0.7917944,-0.1582588
4228,0.7940154,0.7917944,-0.1582588
4230,0.7798419,0.7778319,-0.1594904
4232,0.7798419,0.7778319,-0.1594904
4235,0.7805943,0.7788376,-0.1607126
4237,0.7905577,0.7885751,-0.166689
4239,0.7905577,0.7885751,-0.166689
4242,0.7981939,0.7959845,-0.1701742
4244,0.7981939,0.7959845,-0.1701742
4246,0.8146936,0.8122882,-0.1735894
4249,0.8228193,0.8206762,-0.174713
4251,0.8228193,0.8206762,-0.174713
4253,0.8343908,0.8322775,-0.174713
4256,0.8343908,0.8322775,-0.174713
4258,0.8511084,0.8494976,-0.1735894
4260,0.8511084,0.8494976,-0.1735894
4263,0.8568369,0.8554656,-0.1724585
4265,0.8672784,0.8661495,-0.1713202
4268,0.8672784,0.8661495,-0.1713202
4271,0.8820438,0.8816,-0.1690205
4273,0.8820438,0.8816,-0.1690205
4275,0.8902143,0.8902143,-0.166689
4277,0.902006,0.9024397,-0.1643245
4280,0.902006,0.9024397,-0.1643245
4282,0.9084908,0.9095671,-0.1631294
4284,0.9084908,0.9095671,-0.1631294
4287,0.9138597,0.9149297,-0.1619255
4289,0.9138597,0.9149297,-0.1619255
4291,0.9206861,0.9221727,-0.1594904
4294,0.9206861,0.9221727,-0.1594904
4296,0.9206861,0.9221727,-0.1594904
4298,0.9291486,0.9316724,-0.1570175
4301,0.9291486,0.9316724,-0.1570175
4303,0.9414921,0.9443973,-0.1532334
4305,0.9414921,0.9443973,-0.1532334
4308,0.9454328,0.9485323,-0.1506579
4311,0.9503872,0.9542912,-0.1467098
4313,0.9503872,0.9542912,-0.1467098
4316,0.9705567,0.9743798,-0.1480375
4318,0.9705567,0.9743798,-0.1480375
4320,1.000733,1.004247,-0.1519511
4323,1.022207,1.025266,-0.1519511
4325,1.022207,1.025266,-0.1519511
4327,1.040046,1.043052,-0.1532334
4330,1.040046,1.043052,-0.1532334
4332,1.069543,1.072102,-0.1557664
4334,1.069543,1.072102,-0.1557664
4337,1.081732,1.083901,-0.1557664
4339,1.101273,1.103404,-0.1570175
4341,1.101273,1.103404,-0.1570175
4344,1.10977,1.111355,-0.1570175
4346,1.10977,1.111355,-0.1570175
4348,1.120823,1.122568,-0.1545051
4352,1.125527,1.127091,-0.1545051
4354,1.125527,1.127091,-0.1545051
4356,1.131769,1.133497,-0.1519511
4359,1.131769,1.133497,-0.1519511
4361,1.134014,1.135566,-0.1519511
4363,1.134014,1.135566,-0.1519511
4365,1.134532,1.1366,-0.1493534
4368,1.135394,1.13746,-0.1506579
4370,1.135394,1.13746,-0.1506579
4372,1.132806,1.134877,-0.1467098
4375,1.132806,1.134877,-0.1467098
4377,1.130731,1.132287,-0.1440177
4379,1.130731,1.13246,-0.1412742
4382,1.130731,1.13246,-0.1412742
4384,1.131596,1.133497,-0.1370561
4386,1.131596,1.133497,-0.1370561
4389,1.13125,1.132979,-0.1370561
4391,1.13125,1.132979,-0.1370561
4393,1.131077,1.133151,-0.1341704
4397,1.128306,1.130385,-0.1341704
4399,1.128306,1.130385,-0.1341704
4401,1.125179,1.127264,-0.1312212
4404,1.125179,1.127264,-0.1312212
4406,1.123961,1.125875,-0.132704
4408,1.123961,1.125875,-0.132704
4411,1.122742,1.125006,-0.1312212
4413,1.121696,1.123961,-0.132704
4415,1.121696,1.123961,-0.132704
4418,1.120998,1.123091,-0.132704
4420,1.120998,1.123091,-0.132704
4422,1.120125,1.122045,-0.132704
4425,1.119076,1.121172,-0.1341704
4427,1.119076,1.121172,-0.1341704
4429,1.118201,1.120125,-0.1356209
4432,1.118201,1.120125,-0.1356209
4434,1.117501,1.119251,-0.1370561
4436,1.117501,1.119251,-0.1370561
4440,1.116275,1.118026,-0.1384764
4442,1.115398,1.117501,-0.1398823
4444,1.115398,1.117501,-0.1398823
4447,1.114871,1.116801,-0.1412742
4449,1.114871,1.116801,-0.1412742
4451,1.115047,1.116801,-0.1426525
4453,1.113818,1.115398,-0.1440177
4456,1.113818,1.115398,-0.1440177
4458,1.112411,1.113818,-0.14537
4460,1.112411,1.113818,-0.14537
4463,1.112236,1.113466,-0.1467098
4465,1.112236,1.113466,-0.1467098
4467,1.109417,1.110299,-0.1493534
4470,1.108711,1.109593,-0.1519511
4472,1.108711,1.109593,-0.1519511
4474,1.068994,1.070275,-0.1467098
4477,1.068994,1.070275,-0.1467098
4480,1.054063,1.055547,-0.1467098
4482,1.054063,1.055547,-0.1467098
4485,1.051088,1.052763,-0.1480375
4487,1.049598,1.050902,-0.1493534
4489,1.049598,1.050902,-0.1493534
4492,1.018948,1.020483,-0.1480375
4494,1.018948,1.020483,-0.1480375
4496,1.011237,1.012784,-0.1493534
4499,1.014136,1.015678,-0.1532334
4501,1.014136,1.015678,-0.1532334
4503,1.025266,1.02622,-0.1570175
4506,1.025266,1.02622,-0.1570175
4508,1.031735,1.032682,-0.1594904
4510,1.031735,1.032682,-0.1594904
4513,1.040234,1.040799,-0.1619255
4515,1.047171,1.047358,-0.1643245
4517,1.047171,1.047358,-0.1643245
4520,1.037409,1.037786,-0.1631294
4523,1.037409,1.037786,-0.1631294
4525,1.024693,1.025266,-0.1607126
4528,1.004442,1.005415,-0.1582588
4530,1.004442,1.005415,-0.1582588
4532,0.9879416,0.9891293,-0.1582588
4535,0.9879416,0.9891293,-0.1582588
4537,0.9614412,0.9628648,-0.1557664
4539,0.9614412,0.9628648,-0.1557664
4541,0.9396197,0.9412843,-0.1545051
4544,0.930201,0.9320924,-0.1532334
4546,0.930201,0.9320924,-0.1532334
4548,0.9219604,0.9236568,-0.1532334
4551,0.9219604,0.9236568,-0.1532334
4553,0.9071976,0.9095671,-0.1493534
4555,0.9247154,0.9264069,-0.1532334
4558,0.9247154,0.9264069,-0.1532334
4560,0.949151,0.9503872,-0.1570175
4562,0.949151,0.9503872,-0.1570175
4566,0.9472937,0.9485323,-0.1570175
4568,0.9472937,0.9485323,-0.1570175
4570,0.9433607,0.9446045,-0.1545051
4573,0.9360726,0.9375348,-0.1545051
4575,0.9360726,0.9375348,-0.1545051
4577,0.9247154,0.9261956,-0.1532334
4580,0.9247154,0.9261956,-0.1532334
4582,0.9408684,0.9423231,-0.1545051
4584,0.9408684,0.9423231,-0.1545051
4587,0.9646922,0.9655032,-0.1594904
4589,0.9608305,0.9620516,-0.1570175
4591,0.9608305,0.9620516,-0.1570175
4594,0.955111,0.9561348,-0.1557664
4596,0.955111,0.9561348,-0.1557664
4598,0.9691444,0.9701535,-0.1582588
4601,0.9903157,0.9907107,-0.1607126
4603,0.9903157,0.9907107,-0.1607126
4605,1.014907,1.015485,-0.1643245
4609,1.014907,1.015485,-0.1643245
4611,1.02412,1.024502,-0.1643245
4613,1.02412,1.024502,-0.1643245
4616,1.005221,1.007165,-0.1557664
4618,0.9981881,1.000538,-0.1519511
4620,0.9981881,1.000538,-0.1519511
4622,0.9997552,1.002101,-0.1506579
4625,0.9997552,1.002101,-0.1506579
4627,1.005804,1.007942,-0.1532334
4629,0.9991678,1.001124,-0.1519511
4632,0.9991678,1.001124,-0.1519511
4634,0.9815831,0.9839723,-0.1493534
4636,0.9815831,0.9839723,-0.1493534
4639,0.9893272,0.991303,-0.1519511
4641,0.9893272,0.991303,-0.1519511
4643,1.000342,1.002296,-0.1532334
4646,0.989525,0.9915005,-0.1519511
4648,0.989525,0.9915005,-0.1519511
4651,0.9725708,0.9747815,-0.1480375
4654,0.9725708,0.9747815,-0.1480375
4656,0.9839723,0.9857605,-0.1493534
4658,1.000733,1.002101,-0.1532334
4661,1.000733,1.002101,-0.1532334
4663,1.013363,1.014521,-0.1557664
4665,1.013363,1.014521,-0.1557664
4668,1.031924,1.032682,-0.1582588
4670,1.031924,1.032682,-0.1582588
4672,1.018756,1.019908,-0.1570175
4675,1.007748,1.008912,-0.1545051
4677,1.007748,1.008912,-0.1545051
4679,0.9853634,0.9867525,-0.1506579
4682,0.9853634,0.9867525,-0.1506579
4684,0.974179,0.9761857,-0.1480375
4686,0.974179,0.9761857,-0.1480375
4689,0.9534706,0.9553158,-0.1440177
4691,0.9433607,0.9458466,-0.1412742
4694,0.9433607,0.9458466,-0.1412742
4697,0.9259842,0.9285166,-0.1384764
4699,0.9259842,0.9285166,-0.1384764
4701,0.9115012,0.9142877,-0.1370561
4704,0.9050379,0.9078444,-0.1370561
4706,0.9050379,0.9078444,-0.1370561
4708,0.8996165,0.9024397,-0.1356209
4710,0.8996165,0.9024397,-0.1356209
4713,0.8924097,0.8952556,-0.1356209
4715,0.8924097,0.8952556,-0.1356209
4717,0.8895546,0.892629,-0.1341704
4720,0.8849231,0.8884541,-0.132704
4722,0.8849231,0.8884541,-0.132704
4724,0.8827091,0.8860281,-0.1341704
4727,0.8827091,0.8860281,-0.1341704
4729,0.8793777,0.8824874,-0.1312212
4731,0.8780415,0.8813781,-0.1312212
4734,0.8780415,0.8813781,-0.1312212
4737,0.8796002,0.8824874,-0.132704
4739,0.8796002,0.8824874,-0.132704
4742,0.8816,0.884702,-0.1312212
4744,0.8816,0.884702,-0.1312212
4746,0.8829308,0.8858072,-0.132704
4749,0.8853652,0.8884541,-0.132704
4751,0.8853652,0.8884541,-0.132704
4753,0.8855863,0.8886743,-0.1312212
4756,0.8855863,0.8886743,-0.1312212
4758,0.8853652,0.8882338,-0.132704
4760,0.8853652,0.8882338,-0.132704
4763,0.9046055,0.9071976,-0.1356209
4765,0.9208986,0.923021,-0.1398823
4767,0.9208986,0.923021,-0.1398823
4770,0.9356545,0.9377435,-0.1412742
4772,0.9356545,0.9377435,-0.1412742
4774,0.9373261,0.9392031,-0.1412742
4777,0.9350269,0.9369085,-0.1426525
4780,0.9350269,0.9369085,-0.1426525
4782,0.9323022,0.9339799,-0.1412742
4785,0.9323022,0.9339799,-0.1412742
4787,0.930201,0.9323022,-0.1412742
4789,0.930201,0.9323022,-0.1412742
4792,0.957975,0.9594038,-0.1467098
4794,0.9689425,0.9701535,-0.1480375
4796,0.9689425,0.9701535,-0.1480375
4798,0.9940628,0.9948499,-0.1519511
4801,0.9940628,0.9948499,-0.1519511
4803,1.007165,1.007748,-0.1545051
4805,0.9942597,0.9950465,-0.1519511
4808,0.9942597,0.9950465,-0.1519511
4810,0.9899204,0.9909081,-0.1506579
4812,0.9899204,0.9909081,-0.1506579
4815,0.9679322,0.9691444,-0.1480375
4817,0.9679322,0.9691444,-0.1480375
4819,0.960423,0.9618481,-0.1467098
4823,0.9429458,0.9448116,-0.14537
4825,0.9429458,0.9448116,-0.14537
4827,0.9371173,0.9389946,-0.14537
4830,0.9371173,0.9389946,-0.14537
4832,0.9297802,0.9314623,-0.1440177
4834,0.9196228,0.9215358,-0.1426525
4837,0.9196228,0.9215358,-0.1426525
4839,0.9153573,0.9170658,-0.1426525
4841,0.9153573,0.9170658,-0.1426525
4844,0.9095671,0.9112865,-0.1440177
4846,0.9095671,0.9112865,-0.1440177
4848,0.9091367,0.910857,-0.14537
4851,0.9091367,0.910857,-0.1440177
4853,0.9091367,0.910857,-0.1440177
4855,0.9087062,0.9102123,-0.1440177
4858,0.9087062,0.9102123,-0.1440177
4860,0.9089215,0.9099972,-0.14537
4862,0.9089215,0.9099972,-0.14537
4866,0.9078444,0.9089215,-0.1467098
4868,0.906766,0.9076288,-0.1467098
4870,0.906766,0.9076288,-0.1467098
4873,0.906766,0.9074132,-0.1493534
4875,0.906766,0.9074132,-0.1493534
4877,0.9065502,0.9069818,-0.1480375
4880,0.9076288,0.9082754,-0.1493534
4882,0.9076288,0.9082754,-0.1493534
4884,0.9097822,0.9106421,-0.1506579
4886,0.9097822,0.9106421,-0.1506579
4889,0.9076288,0.9084908,-0.1493534
4891,0.9076288,0.9084908,-0.1493534
4893,0.9061184,0.906766,-0.1493534
4896,0.9043891,0.9054703,-0.1480375
4898,0.9043891,0.9054703,-0.1480375
4900,0.9039564,0.9052542,-0.1480375
4903,0.9039564,0.9052542,-0.1480375
4905,0.9022229,0.9037398,-0.1480375
4908,0.9002688,0.901789,-0.1467098
4911,0.9002688,0.901789,-0.1467098
4913,0.9196228,0.9206861,-0.1480375
4915,0.9196228,0.9206861,-0.1480375
4918,0.949151,0.9497693,-0.1519511
4920,0.949151,0.9497693,-0.1519511
4922,0.9691444,0.9697499,-0.1545051
4925,1.000733,1.000733,-0.1570175
4927,1.000733,1.000733,-0.1570175
4929,1.01317,1.01317,-0.1582588
4932,1.01317,1.01317,-0.1582588
4934,1.035332,1.035143,-0.1582588
4936,1.044365,1.044177,-0.1594904
4939,1.044365,1.044177,-0.1594904
4941,1.062568,1.0622,-0.1607126
4943,1.062568,1.0622,-0.1607126
4946,1.071189,1.070823,-0.1594904
4948,1.071189,1.070823,-0.1594904
4951,1.085524,1.085344,-0.1594904
4954,1.091457,1.091098,-0.1582588
4956,1.091457,1.091098,-0.1582588
4958,1.104821,1.104467,-0.1570175
4961,1.104821,1.104467,-0.1570175
4963,1.110299,1.110122,-0.1582588
4965,1.110299,1.110122,-0.1582588
4968,1.118201,1.118201,-0.1570175
4970,1.122219,1.121696,-0.1582588
4972,1.122219,1.121696,-0.1582588
4974,1.128479,1.128132,-0.1582588
4977,1.128479,1.128132,-0.1582588
4979,1.131423,1.130904,-0.1582588
4981,1.134532,1.134014,-0.1582588
4984,1.134532,1.134014,-0.1582588
4986,1.136428,1.135739,-0.1594904
4988,1.136428,1.135739,-0.1594904
4992,1.099495,1.099139,-0.1557664
4994,1.099495,1.099139,-0.1557664
4996,1.086065,1.086065,-0.1557664
4999,1.045863,1.046237,-0.1506579
5001,1.045863,1.046237,-0.1506579
5003,1.01375,1.014329,-0.1493534
5006,1.01375,1.014329,-0.1493534
5008,1.01375,1.014329,-0.1493534
5010,1.01375,1.014329,-0.1493534
5013,1.01375,1.014329,-0.1493534
5015,0.9958329,0.9964222,-0.1480375
5017,0.9958329,0.9964222,-0.1480375
5020,0.9685385,0.9693463,-0.1480375
5022,0.9685385,0.9693463,-0.1480375
5024,0.9549061,0.9557254,-0.1493534
5027,0.9339799,0.9346082,-0.1506579
5029,0.9339799,0.9346082,-0.1506579
5031,0.9261956,0.926618,-0.1519511
5035,0.9261956,0.926618,-0.1519511
5037,0.9140738,0.9147157,-0.1532334
5039,0.9140738,0.9147157,-0.1532334
5042,0.9097822,0.9099972,-0.1532334
5044,0.9026566,0.9028733,-0.1545051
5046,0.9026566,0.9028733,-0.1545051
5049,0.8972207,0.8970026,-0.1545051
5051,0.8972207,0.8970026,-0.1545051
5053,0.8884541,0.8880135,-0.1557664
5056,0.8860281,0.8858072,-0.1570175
5058,0.8860281,0.8858072,-0.1570175
5060,0.8822656,0.8818219,-0.1557664
5062,0.8822656,0.8818219,-0.1557664
5065,0.8813781,0.881156,-0.1570175
5067,0.8813781,0.881156,-0.1570175
5069,0.8802673,0.8791551,-0.1607126
5072,0.8804895,0.8793777,-0.1619255
5074,0.8804895,0.8793777,-0.1619255
5076,0.8802673,0.8791551,-0.1643245
5080,0.8802673,0.8791551,-0.1643245
5082,0.8816,0.8802673,-0.165511
5084,0.8827091,0.881156,-0.1678588
5087,0.8827091,0.881156,-0.1678588
5089,0.8813781,0.8798226,-0.1678588
5091,0.8813781,0.8798226,-0.1678588
5094,0.8787099,0.8769265,-0.1701742
5096,0.8787099,0.8769265,-0.1701742
5098,0.8778186,0.8760335,-0.1690205
5101,0.8762568,0.8742447,-0.1701742
5103,0.8762568,0.8742447,-0.1701742
5105,0.8764802,0.8744686,-0.1701742
5108,0.8764802,0.8744686,-0.1701742
5110,0.8762568,0.8744686,-0.1701742
5112,0.8764802,0.8744686,-0.1713202
5115,0.8764802,0.8744686,-0.1713202
5117,0.8760335,0.8740209,-0.1701742
5120,0.8760335,0.8740209,-0.1701742
5123,0.8755867,0.873573,-0.1690205
5125,0.8755867,0.873573,-0.1690205
5127,0.8751395,0.873349,-0.1678588
5130,0.873349,0.8715547,-0.165511
5132,0.873349,0.8715547,-0.165511
5134,0.8713301,0.8695317,-0.1631294
5137,0.8713301,0.8695317,-0.1631294
5139,0.8708809,0.8695317,-0.1619255
5141,0.8708809,0.8695317,-0.1619255
5144,0.8706562,0.8697567,-0.1607126
5146,0.8726766,0.8717791,-0.1582588
5148,0.8726766,0.8717791,-0.1582588
5150,0.8737969,0.8731248,-0.1582588
5153,0.8737969,0.8731248,-0.1582588
5155,0.8769265,0.8762568,-0.1570175
5157,0.8784871,0.8784871,-0.1532334
5160,0.8784871,0.8784871,-0.1532334
5163,0.8800449,0.8798226,-0.1532334
5165,0.8800449,0.8798226,-0.1532334
5168,0.8798226,0.8798226,-0.1532334
5170,0.8798226,0.8798226,-0.1532334
5172,0.8793777,0.8796002,-0.1519511
5175,0.8793777,0.8796002,-0.1519511
5177,0.8793777,0.8796002,-0.1519511
5179,0.8791551,0.8791551,-0.1519511
5182,0.8791551,0.8791551,-0.1519511
5184,0.8791551,0.8789325,-0.1519511
5186,0.8802673,0.8798226,-0.1532334
5189,0.8802673,0.8798226,-0.1532334
5191,0.8807117,0.8807117,-0.1532334
5193,0.8807117,0.8807117,-0.1532334
5196,0.8818219,0.881156,-0.1532334
5198,0.8818219,0.881156,-0.1532334
5200,0.8849231,0.8844808,-0.1545051
5203,0.8849231,0.8842595,-0.1545051
5206,0.8849231,0.8842595,-0.1545051
5208,0.8838168,0.8833739,-0.1545051
5211,0.8838168,0.8833739,-0.1545051
5213,0.8842595,0.8838168,-0.1557664
5215,0.8842595,0.8838168,-0.1557664
5218,0.8855863,0.8849231,-0.1570175
5220,0.8866904,0.8858072,-0.1570175
5222,0.8866904,0.8858072,-0.1570175
5225,0.8891146,0.8877931,-0.1582588
5227,0.8891146,0.8877931,-0.1582588
5229,0.8899944,0.8886743,-0.1582588
5231,0.8873522,0.8853652,-0.1607126
5234,0.8873522,0.8853652,-0.1607126
5236,0.8862489,0.8842595,-0.1619255
5238,0.8862489,0.8842595,-0.1619255
5241,0.8851442,0.8827091,-0.1643245
5243,0.8851442,0.8827091,-0.1643245
5245,0.884702,0.8822656,-0.165511
5249,0.8827091,0.8804895,-0.166689
5251,0.8827091,0.8804895,-0.166689
5253,0.8802673,0.8780415,-0.166689
5256,0.8802673,0.8780415,-0.166689
5258,0.8782644,0.8755867,-0.1678588
5260,0.8773727,0.8746923,-0.1690205
5263,0.8773727,0.8746923,-0.1690205
5265,0.8769265,0.8742447,-0.1678588
5267,0.8769265,0.8742447,-0.1678588
5270,0.8762568,0.873349,-0.166689
5272,0.8762568,0.873349,-0.166689
5274,0.8755867,0.8726766,-0.1678588
5277,0.8746923,0.8715547,-0.1678588
5279,0.8746923,0.8715547,-0.1678588
5281,0.8746923,0.8717791,-0.1701742
5284,0.8746923,0.8717791,-0.1701742
5286,0.8746923,0.8717791,-0.1690205
5288,0.8760335,0.8726766,-0.1701742
5292,0.8760335,0.8726766,-0.1701742
5294,0.8773727,0.873573,-0.1701742
5296,0.8773727,0.873573,-0.1701742
5299,0.8787099,0.8746923,-0.1713202
5301,0.8787099,0.8746923,-0.1713202
5303,0.8802673,0.8760335,-0.1758294
5306,0.8804895,0.8760335,-0.1758294
5308,0.8804895,0.8760335,-0.1758294
5310,0.8807117,0.8760335,-0.1758294
5313,0.8807117,0.8760335,-0.1758294
5315,0.881156,0.8764802,-0.1780411
5317,0.881156,0.8764802,-0.1780411
5319,0.8822656,0.8771496,-0.1791368
5322,0.8813781,0.8758101,-0.1802258
5324,0.8813781,0.8758101,-0.1802258
5326,0.8800449,0.8742447,-0.1823843
5329,0.8800449,0.8742447,-0.1823843
5331,0.8771496,0.8715547,-0.1823843
5334,0.8731248,0.8670527,-0.1845175
5337,0.8731248,0.8670527,-0.1845175
5339,0.8711056,0.864793,-0.1866263
5341,0.8711056,0.864793,-0.1866263
5344,0.8702065,0.8638874,-0.1876719
5346,0.8702065,0.8638874,-0.1876719
5348,0.8693066,0.8627541,-0.1897456
5351,0.8670527,0.8602557,-0.191797
5353,0.8670527,0.8602557,-0.191797
5355,0.864793,0.8575217,-0.1938267
5358,0.864793,0.8575217,-0.1938267
5360,0.8634343,0.8561515,-0.1938267
5362,0.8588898,0.8517979,-0.1938267
5365,0.8588898,0.8517979,-0.1938267
5367,0.8561515,0.8492672,-0.1938267
5369,0.8561515,0.8492672,-0.1938267
5372,0.8497278,0.842791,-0.1907741
5374,0.8497278,0.842791,-0.1907741
5377,0.8460353,0.8393012,-0.1887116
5380,0.8627541,0.8556943,-0.191797
5382,0.8627541,0.8556943,-0.191797
5384,0.8791551,0.8715547,-0.1958353
5387,0.8791551,0.8715547,-0.1958353
5389,0.9123595,0.9039564,-0.2007689
5391,0.9287274,0.9198356,-0.2046302
5394,0.9287274,0.9198356,-0.2046302
5396,0.9425307,0.9333511,-0.2065338
5398,0.9425307,0.9333511,-0.2065338
5401,0.9683364,0.9587917,-0.2074791
5403,0.9683364,0.9587917,-0.2074791
5405,0.9893272,0.9795874,-0.20842
5407,0.9985801,0.9891293,-0.20842
5410,0.9985801,0.9891293,-0.20842
5412,1.006777,0.9972074,-0.2093567
5414,1.006777,0.9972074,-0.2093567
5417,1.017411,1.008136,-0.2074791
5420,1.017411,1.008136,-0.2074791
5422,1.022016,1.012977,-0.2074791
5425,1.029266,1.020291,-0.2065338
5427,1.029266,1.020291,-0.2065338
5429,1.032872,1.023547,-0.2074791
5432,1.032872,1.023547,-0.2074791
5434,0.9960293,0.9885356,-0.1928145
5436,0.9827783,0.9761857,-0.1876719
5439,0.9827783,0.9761857,-0.1876719
5441,0.9831765,0.9767869,-0.1855749
5443,0.9831765,0.9767869,-0.1855749
5446,0.9837734,0.9771874,-0.1855749
5448,0.9837734,0.9771874,-0.1855749
5450,0.992881,0.9861575,-0.1876719
5453,0.9964222,0.9893272,-0.1887116
5455,0.9964222,0.9893272,-0.1887116
5457,1.003467,0.9962258,-0.1907741
5460,1.003467,0.9962258,-0.1907741
5463,1.013943,1.006388,-0.1948336
5465,1.017603,1.009882,-0.1948336
5468,1.017603,1.009882,-0.1948336
5470,1.023547,1.015678,-0.199792
5472,1.023547,1.015678,-0.199792
5475,1.02622,1.017987,-0.2007689
5477,1.02622,1.017987,-0.2007689
5479,1.028505,1.019908,-0.2027088
5482,1.07429,1.064776,-0.2130625
5484,1.07429,1.064776,-0.2130625
5486,1.091815,1.081732,-0.2176059
5489,1.091815,1.081732,-0.2176059
5491,1.071371,1.061831,-0.2130625
5493,1.071371,1.061831,-0.2130625
5495,1.047732,1.038728,-0.20842
5498,1.041926,1.033061,-0.2074791
5500,1.041926,1.033061,-0.2074791
5502,1.036843,1.028125,-0.2074791
5506,1.036843,1.028125,-0.2074791
5508,1.034954,1.025648,-0.2102893
5510,1.034008,1.024502,-0.2102893
5513,1.034008,1.024502,-0.2102893
5515,1.076655,1.066245,-0.220287
5517,1.076655,1.066245,-0.220287
5520,1.092532,1.081732,-0.2238118
5522,1.092532,1.081732,-0.2238118
5524,1.097001,1.085705,-0.2272819
5527,1.098961,1.087325,-0.2289973
5529,1.098961,1.087325,-0.2289973
5531,1.096644,1.085164,-0.2289973
5534,1.096644,1.085164,-0.2289973
5536,1.093427,1.082275,-0.2272819
5538,1.110651,1.099139,-0.2298502
5541,1.110651,1.099139,-0.2298502
5543,1.137804,1.125875,-0.235734
5545,1.137804,1.125875,-0.235734
5549,1.110475,1.099139,-0.2289973
5551,1.110475,1.099139,-0.2289973
5553,1.070092,1.059987,-0.2185032
5556,1.060356,1.050716,-0.2158
5558,1.060356,1.050716,-0.2158
5560,1.052391,1.043052,-0.2130625
5563,1.052391,1.043052,-0.2130625
5565,1.04399,1.035332,-0.20842
5567,1.042302,1.033819,-0.2065338
5570,1.042302,1.033819,-0.2065338
5572,1.001515,0.9942597,-0.1978235
5574,1.001515,0.9942597,-0.1978235
5577,0.9857605,0.9787881,-0.1948336
5579,0.9857605,0.9787881,-0.1948336
5581,0.9845687,0.977788,-0.1938267
5583,0.9811842,0.9747815,-0.191797
5586,0.9811842,0.9747815,-0.191797
5588,1.008136,1.000929,-0.1978235
5591,1.008136,1.000929,-0.1978235
5594,1.030026,1.022207,-0.2027088
5596,1.030026,1.022207,-0.2027088
5598,1.07611,1.066979,-0.2139789
5601,1.099495,1.089663,-0.220287
5603,1.099495,1.089663,-0.220287
5605,1.117326,1.106591,-0.2246844
5608,1.117326,1.106591,-0.2246844
5610,1.116275,1.10553,-0.2255535
5612,1.129346,1.118201,-0.2298502
5615,1.129346,1.118201,-0.2298502
5617,1.140896,1.129346,-0.23239
5619,1.140896,1.129346,-0.23239
5622,1.143294,1.131596,-0.2315465
5624,1.143294,1.131596,-0.2315465
5626,1.13746,1.126049,-0.2306999
5629,1.132979,1.121696,-0.2298502
5632,1.132979,1.121696,-0.2298502
5634,1.107652,1.096822,-0.2238118
5637,1.107652,1.096822,-0.2238118
5639,1.098427,1.087685,-0.2229358
5641,1.127091,1.116625,-0.2246844
5644,1.127091,1.116625,-0.2246844
5646,1.121696,1.111003,-0.2238118
5648,1.121696,1.111003,-0.2238118
5651,1.117501,1.106945,-0.2229358
5653,1.117501,1.106945,-0.2229358
5655,1.106414,1.096108,-0.2193969
5658,1.095394,1.085524,-0.2167048
5660,1.095394,1.085524,-0.2167048
5662,1.084623,1.075018,-0.2139789
5665,1.084623,1.075018,-0.2139789
5667,1.069543,1.060356,-0.20842
5669,1.063305,1.054434,-0.2074791
5671,1.063305,1.054434,-0.2074791
5675,1.058324,1.049412,-0.2065338
5677,1.058324,1.049412,-0.2065338
5679,1.051274,1.042677,-0.2046302
5682,1.051274,1.042677,-0.2046302
5684,1.049038,1.040046,-0.2046302
5686,1.046798,1.038352,-0.2036718
5689,1.046798,1.038352,-0.2036718
5691,1.042865,1.034197,-0.2027088
5693,1.042865,1.034197,-0.2027088
5696,1.039858,1.031165,-0.2027088
5698,1.039858,1.031165,-0.2027088
5700,1.03854,1.030026,-0.2027088
5703,1.035521,1.026792,-0.2027088
5705,1.035521,1.026792,-0.2027088
5707,1.03363,1.025075,-0.2027088
5710,1.03363,1.025075,-0.2027088
5712,1.031165,1.022207,-0.2027088
5714,1.028696,1.020291,-0.2017412
5718,1.028696,1.020291,-0.2017412
5720,1.027934,1.019332,-0.2017412
5722,1.027934,1.019332,-0.2017412
5725,1.028696,1.020291,-0.2007689
5727,1.028696,1.020291,-0.2007689
5729,1.027173,1.01914,-0.199792
5732,1.026029,1.017411,-0.2017412
5734,1.026029,1.017411,-0.2017412
5736,1.024693,1.016256,-0.199792
5739,1.024693,1.016256,-0.199792
5741,1.024693,1.016256,-0.199792
5743,1.025075,1.016448,-0.2027088
5746,1.025075,1.016448,-0.2027088
5748,1.002296,0.9946532,-0.1978235
5750,1.002296,0.9946532,-0.1978235
5753,0.962255,0.9557254,-0.1897456
5755,0.962255,0.9557254,-0.1897456
5757,0.9450188,0.9385778,-0.1876719
5760,0.9183452,0.912574,-0.183454
5763,0.9183452,0.912574,-0.183454
5765,0.906766,0.9013549,-0.1845175
5767,0.906766,0.9013549,-0.1845175
5770,0.8888945,0.8840382,-0.1845175
5772,0.8888945,0.8840382,-0.1845175
5774,0.8798226,0.8746923,-0.183454
5777,0.8652454,0.8604831,-0.1823843
5779,0.8652454,0.8604831,-0.1823843
5781,0.8607104,0.8556943,-0.1823843
5784,0.8607104,0.8556943,-0.1823843
5786,0.8531751,0.8478836,-0.183454
5788,0.8547791,0.8494976,-0.183454
5791,0.8547791,0.8494976,-0.183454
5793,0.8559229,0.8504184,-0.1855749
5795,0.8559229,0.8504184,-0.1855749
5798,0.8623004,0.8566085,-0.1876719
5800,0.8623004,0.8566085,-0.1876719
5803,0.8704314,0.8650193,-0.1897456
5806,0.858434,0.8534044,-0.1855749
5808,0.858434,0.8534044,-0.1855749
5810,0.8388348,0.835094,-0.1780411
5813,0.8388348,0.835094,-0.1780411
5815,0.8280347,0.8249568,-0.1758294
5817,0.8106001,0.8084246,-0.1713202
5820,0.8106001,0.8084246,-0.1713202
5822,0.8028382,0.8003972,-0.1713202
5824,0.8028382,0.8003972,-0.1713202
5827,0.7893192,0.7873334,-0.1690205
5829,0.7893192,0.7873334,-0.1690205
5831,0.7883269,0.7858408,-0.1701742
5834,0.7855918,0.782347,-0.1701742
5836,0.7855918,0.782347,-0.1701742
5838,0.7905577,0.7868362,-0.1724585
5840,0.7905577,0.7868362,-0.1724585
5843,0.7940154,0.7898148,-0.1735894
5846,0.8042993,0.798929,-0.1758294
5848,0.8042993,0.798929,-0.1758294
5851,0.8101172,0.8042993,-0.1769387
5853,0.8101172,0.8042993,-0.1769387
5855,0.8204377,0.8137322,-0.1802258
5858,0.8204377,0.8137322,-0.1802258
5860,0.825194,0.8180492,-0.1802258
5862,0.8327476,0.8247196,-0.183454
5865,0.8327476,0.8247196,-0.183454
5867,0.8357967,0.8275619,-0.1845175
5869,0.8357967,0.8275619,-0.1845175
5872,0.8409316,0.8325126,-0.1866263
5874,0.8409316,0.8325126,-0.1866263
5876,0.842791,0.8343908,-0.1876719
5879,0.8437192,0.8357967,-0.1887116
5881,0.8437192,0.8357967,-0.1887116
5883,0.8448781,0.8362648,-0.1907741
5886,0.8448781,0.8362648,-0.1907741
5889,0.8446465,0.8367326,-0.1907741
5891,0.8346253,0.8256681,-0.1958353
5894,0.8346253,0.8256681,-0.1958353
5896,0.8301588,0.8213912,-0.1958353
5898,0.8301588,0.8213912,-0.1958353
5901,0.8175707,0.8074558,-0.199792
5903,0.8175707,0.8074558,-0.199792
5905,0.812529,0.8023506,-0.2007689
5908,0.8028382,0.7917944,-0.2027088
5910,0.8028382,0.7917944,-0.2027088
5912,0.7991739,0.7883269,-0.2036718
5915,0.7991739,0.7883269,-0.2036718
5917,0.7912999,0.7795909,-0.2055842
5919,0.7888232,0.7765731,-0.2074791
5922,0.7888232,0.7765731,-0.2074791
5924,0.7805943,0.7677034,-0.2102893
5926,0.7805943,0.7677034,-0.2102893
5928,0.7773286,0.7641266,-0.2102893
5932,0.7773286,0.7641266,-0.2102893
5934,0.770502,0.7566639,-0.2130625
5936,0.7677034,0.7538139,-0.2130625
5939,0.7677034,0.7538139,-0.2130625
5941,0.7659171,0.7519946,-0.2130625
5943,0.7659171,0.7519946,-0.2130625
5946,0.7641266,0.7501709,-0.2167048
5948,0.7641266,0.7501709,-0.2167048
5950,0.7636142,0.749388,-0.2176059
5953,0.7659171,0.7519946,-0.2167048
5955,0.7659171,0.7519946,-0.2167048
5957,0.7679582,0.7538139,-0.2176059
5960,0.7679582,0.7538139,-0.2176059
5962,0.7710097,0.7571809,-0.2167048
5964,0.7715172,0.7589878,-0.2139789
5967,0.7715172,0.7589878,-0.2139789
5969,0.7727842,0.7595032,-0.2139789
5971,0.7727842,0.7595032,-0.2139789
5975,0.7702479,0.7579558,-0.2112177
5977,0.7702479,0.7579558,-0.2112177
5979,0.7679582,0.7561465,-0.2093567
5982,0.7666831,0.7551107,-0.2065338
5984,0.7666831,0.7551107,-0.2065338
5986,0.7654059,0.7540734,-0.2046302
5989,0.7654059,0.7540734,-0.2046302
5991,0.7945082,0.7845948,-0.1958353
5993,0.8052719,0.7962303,-0.1928145
5996,0.8052719,0.7962303,-0.1928145
5998,0.8280347,0.8201992,-0.1866263
6000,0.8280347,0.8201992,-0.1866263
6003,0.8367326,0.8292154,-0.1845175
6005,0.8367326,0.8292154,-0.1845175
6007,0.8880135,0.8802673,-0.1887116
6010,0.9074132,0.899399,-0.1907741
6012,0.9074132,0.899399,-0.1907741
6014,0.9102123,0.9024397,-0.1887116
6017,0.9102123,0.9024397,-0.1887116
6020,0.9155711,0.9082754,-0.1866263
6022,0.8959111,0.8882338,-0.1866263
6024,0.8959111,0.8882338,-0.1866263
6027,0.867504,0.8595729,-0.1887116
6029,0.867504,0.8595729,-0.1887116
6031,0.858434,0.8506485,-0.1855749
6034,0.858434,0.8506485,-0.1855749
6036,0.8453411,0.8381346,-0.183454
6038,0.8228193,0.8151737,-0.1845175
6041,0.8228193,0.8151737,-0.1845175
6043,0.7888232,0.7803435,-0.1887116
6045,0.7888232,0.7803435,-0.1887116
6048,0.7720242,0.7633579,-0.1897456
6050,0.7720242,0.7633579,-0.1897456
6052,0.7576976,0.7491269,-0.1907741
6055,0.7491269,0.7409853,-0.1876719
6057,0.7491269,0.7409853,-0.1876719
6060,0.7512136,0.7436213,-0.1823843
6063,0.7512136,0.7436213,-0.1823843
6065,0.7444103,0.7372789,-0.1823843
6067,0.733287,0.7268545,-0.1802258
6070,0.733287,0.7268545,-0.1802258
6072,0.711894,0.7058211,-0.1791368
6074,0.711894,0.7058211,-0.1791368
6077,0.7033216,0.6974546,-0.1791368
6079,0.7033216,0.6974546,-0.1791368
6081,0.7102429,0.7041557,-0.1823843
6084,0.7200928,0.7127182,-0.1876719
6086,0.7200928,0.7127182,-0.1876719
6088,0.7233464,0.7157319,-0.1897456
6091,0.7233464,0.7157319,-0.1897456
6093,0.7024865,0.6960504,-0.1845175
6095,0.6923862,0.6869956,-0.1813082
6098,0.6923862,0.6869956,-0.1813082
6100,0.6763749,0.6723125,-0.174713
6103,0.6763749,0.6723125,-0.174713
6105,0.6667597,0.6635236,-0.1713202
6108,0.6667597,0.6635236,-0.1713202
6110,0.6581939,0.6555129,-0.1678588
6112,0.6510199,0.6489125,-0.1643245
6115,0.661456,0.659382,-0.165511
6117,0.6702721,0.6673463,-0.1678588
6119,0.6702721,0.6673463,-0.1678588
6122,0.6769533,0.6737661,-0.1678588
6124,0.6952065,0.6912548,-0.1724585
6126,0.6952065,0.6912548,-0.1724585
6129,0.7013714,0.697174,-0.1735894
6131,0.7013714,0.697174,-0.1735894
6133,0.7105184,0.7055438,-0.1769387
6136,0.7105184,0.7055438,-0.1769387
6138,0.7129927,0.707759,-0.1780411
6140,0.7149112,0.7096917,-0.1780411
6144,0.7149112,0.7096917,-0.1780411
6146,0.7184606,0.7132671,-0.1791368
6148,0.7184606,0.7132671,-0.1791368
6151,0.7200928,0.7149112,-0.1791368
6153,0.7200928,0.7149112,-0.1791368
6155,0.7228051,0.7165515,-0.1802258
6158,0.7238871,0.717643,-0.1802258
6160,0.7238871,0.717643,-0.1802258
6162,0.7260464,0.7195491,-0.1813082
6165,0.7260464,0.7195491,-0.1813082
6167,0.7276617,0.7206361,-0.1823843
6169,0.7287365,0.7217214,-0.1823843
6172,0.7287365,0.7217214,-0.1823843
6174,0.7356848,0.7273927,-0.1876719
6176,0.7356848,0.7273927,-0.1876719
6179,0.7436213,0.7348864,-0.191797
6181,0.7436213,0.7348864,-0.191797
6183,0.7483428,0.7391344,-0.1948336
6187,0.7522548,0.7428315,-0.1968319
6189,0.7522548,0.7428315,-0.1968319
6191,0.7595032,0.7488656,-0.2017412
6193,0.7595032,0.7488656,-0.2017412
6196,0.7620752,0.7509531,-0.2036718
6198,0.7346201,0.7244276,-0.1988102
6200,0.7346201,0.7244276,-0.1988102
6203,0.7244276,0.7143636,-0.1968319
6205,0.7244276,0.7143636,-0.1968319
6207,0.7322189,0.7209076,-0.2036718
6210,0.7322189,0.7209076,-0.2036718
6212,0.7351527,0.7230757,-0.2065338
6214,0.7249676,0.7129927,-0.2065338
6217,0.7249676,0.7129927,-0.2065338
6219,0.7162784,0.7038778,-0.2065338
6221,0.7162784,0.7038778,-0.2065338
6224,0.6921035,0.6795497,-0.2065338
6226,0.6921035,0.6795497,-0.2065338
6228,0.6829963,0.6702721,-0.2055842
6232,0.6632286,0.649214,-0.2093567
6234,0.6632286,0.649214,-0.2093567
6236,0.6558113,0.6413296,-0.2102893
6239,0.6558113,0.6413296,-0.2102893
6241,0.6434618,0.6268256,-0.2158
6243,0.6388841,0.6218109,-0.2185032
6246,0.6388841,0.6218109,-0.2185032
6248,0.6398023,0.6218109,-0.2220564
6250,0.6398023,0.6218109,-0.2220564
6253,0.640108,0.6208661,-0.2272819
6255,0.640108,0.6208661,-0.2272819
6257,0.6382713,0.6167554,-0.23239
6260,0.6342734,0.6100564,-0.2398483
6262,0.6342734,0.6100564,-0.2398483
6264,0.6265134,0.6010084,-0.2438933
6267,0.6265134,0.6010084,-0.2438933
6269,0.6148488,0.5868416,-0.25101
6272,0.608772,0.5784457,-0.254109
6275,0.608772,0.5784457,-0.254109
6277,0.5990517,0.5664824,-0.2601963
6279,0.5990517,0.5664824,-0.2601963
6281,0.5944612,0.5598809,-0.2639296
6284,0.5944612,0.5598809,-0.2639296
6286,0.5868416,0.5507192,-0.2690692
6288,0.5964329,0.5605795,-0.268341
6291,0.5964329,0.5605795,-0.268341
6293,0.6097356,0.5753932,-0.2676108
6295,0.6097356,0.5753932,-0.2676108
6298,0.6202354,0.5865081,-0.2676108
6300,0.6348901,0.6026341,-0.268341
6302,0.6348901,0.6026341,-0.268341
6305,0.6419396,0.6094146,-0.2697954
6307,0.6419396,0.6094146,-0.2697954
6309,0.652221,0.6196041,-0.2719625
6312,0.652221,0.6196041,-0.2719625
6315,0.6596788,0.6265134,-0.2755364
6317,0.6658786,0.6321102,-0.2776587
6320,0.6658786,0.6321102,-0.2776587
6322,0.6932335,0.6623429,-0.2755364
6324,0.6932335,0.6623429,-0.2755364
6327,0.7121689,0.6829963,-0.272681
6329,0.7121689,0.6829963,-0.272681
6331,0.749649,0.7236168,-0.2676108
6334,0.7679582,0.7433581,-0.2654082
6336,0.7679582,0.7433581,-0.2654082
6338,0.798439,0.7755645,-0.261696
6341,0.798439,0.7755645,-0.261696
6343,0.8110828,0.7890712,-0.2609472
6345,0.8311011,0.8101172,-0.2594432
6348,0.8311011,0.8101172,-0.2594432
6350,0.839068,0.8182884,-0.2594432
6352,0.839068,0.8182884,-0.2594432
6355,0.8497278,0.8292154,-0.2594432
6358,0.8497278,0.8292154,-0.2594432
6360,0.8534044,0.8329825,-0.2594432
6363,0.8609378,0.8402332,-0.2601963
6365,0.8609378,0.8402332,-0.2601963
6367,0.8645667,0.8437192,-0.2609472
6369,0.8645667,0.8437192,-0.2609472
6372,0.867955,0.8476528,-0.2609472
6374,0.9295698,0.9080599,-0.2705197
6376,0.9295698,0.9080599,-0.2705197
6379,0.9536759,0.9316724,-0.2741124
6381,0.9536759,0.9316724,-0.2741124
6383,0.9733753,0.9520329,-0.2712421
6386,0.9733753,0.9520329,-0.2712421
6388,0.98238,0.9616448,-0.2705197
6390,0.9867525,0.9673254,-0.2639296
6393,0.9867525,0.9673254,-0.2639296
6395,1.004442,0.9849661,-0.2661444
6397,1.004442,0.9849661,-0.2661444
6401,1.020867,1.001124,-0.2676108
6403,1.035521,1.016063,-0.268341
6405,1.035521,1.016063,-0.268341
6408,1.054063,1.034197,-0.2719625
6410,1.054063,1.034197,-0.2719625
6412,1.067712,1.048479,-0.2697954
6415,1.067712,1.048479,-0.2697954
6417,1.067346,1.048852,-0.2668786
6419,1.068262,1.050343,-0.2631872
6422,1.068262,1.050343,-0.2631872
6424,1.080103,1.062384,-0.2631872
6426,1.080103,1.062384,-0.2631872
6429,1.091098,1.073561,-0.2631872
6431,1.091098,1.073561,-0.2631872
6433,1.083901,1.068262,-0.2517883
6436,1.082817,1.068079,-0.2470816
6438,1.082817,1.068079,-0.2470816
6440,1.074472,1.06091,-0.2398483
6444,1.074472,1.06091,-0.2398483
6446,1.080827,1.068628,-0.2315465
6448,1.091995,1.080103,-0.2298502
6450,1.091995,1.080103,-0.2298502
6453,1.102162,1.090381,-0.2289973
6455,1.102162,1.090381,-0.2289973
6457,1.098248,1.088045,-0.2185032
6460,1.098248,1.088045,-0.2185032
6462,1.098248,1.088585,-0.2139789
6464,1.088585,1.080284,-0.2036718
6467,1.088585,1.080284,-0.2036718
6469,1.086425,1.079015,-0.1988102
6471,1.086425,1.079015,-0.1988102
6474,1.077382,1.070641,-0.1907741
6476,1.0752,1.068994,-0.1866263
6478,1.0752,1.068994,-0.1866263
6481,1.089663,1.083178,-0.1897456
6483,1.089663,1.083178,-0.1897456
6486,1.102694,1.096108,-0.1907741
6489,1.102694,1.096108,-0.1907741
6491,1.114871,1.108182,-0.1938267
6493,1.111708,1.105353,-0.1897456
6496,1.111708,1.105353,-0.1897456
6498,1.111708,1.105353,-0.1897456
6500,1.111708,1.105353,-0.1897456
6503,1.111708,1.105353,-0.1897456
6505,1.111708,1.105353,-0.1897456
6507,1.097179,1.091636,-0.1845175
6510,1.086965,1.081732,-0.1791368
6512,1.086965,1.081732,-0.1791368
6514,1.075928,1.071006,-0.1758294
6517,1.075928,1.071006,-0.1758294
6519,1.067896,1.063305,-0.1724585
6521,1.067896,1.063305,-0.1724585
6524,1.067896,1.063305,-0.1724585
6526,1.061463,1.056844,-0.1701742
6529,1.061463,1.056844,-0.1701742
6532,1.052763,1.048665,-0.1690205
6534,1.052763,1.048665,-0.1690205
6536,1.042302,1.038163,-0.1678588
6538,1.038728,1.034387,-0.166689
6541,1.038728,1.034387,-0.166689
6543,1.036277,1.031924,-0.165511
6545,1.036277,1.031924,-0.165511
6548,1.030596,1.02622,-0.165511
6550,1.027173,1.023355,-0.1643245
6552,1.027173,1.023355,-0.1643245
6555,1.025075,1.021058,-0.1631294
6557,1.025075,1.021058,-0.1631294
6559,1.021058,1.017026,-0.1631294
6562,1.021058,1.017026,-0.1631294
6564,1.018564,1.014714,-0.165511
6566,1.017026,1.01317,-0.1643245
6569,1.017026,1.01317,-0.1643245
6572,1.015678,1.011624,-0.165511
6574,1.015678,1.011624,-0.165511
6577,1.014521,1.010075,-0.165511
6579,1.013363,1.0093,-0.165511
6581,1.013363,1.0093,-0.165511
6584,1.012784,1.008718,-0.165511
6586,1.012784,1.008718,-0.165511
6588,1.011237,1.00736,-0.1643245
6591,1.011237,1.00736,-0.1643245
6593,1.011237,1.00736,-0.1643245
6595,1.001906,0.9975998,-0.166689
6598,1.001906,0.9975998,-0.166689
6600,0.9946532,0.9903157,-0.1678588
6602,0.9946532,0.9903157,-0.1678588
6605,0.9675278,0.962255,-0.1758294
6607,0.9675278,0.962255,-0.1758294
6609,0.9450188,0.9389946,-0.1823843
6612,0.9177057,0.9104272,-0.1897456
6615,0.9177057,0.9104272,-0.1897456
6617,0.8950371,0.8864697,-0.1968319
6620,0.8950371,0.8864697,-0.1968319
6622,0.8764802,0.866827,-0.2017412
6624,0.842791,0.8313365,-0.2102893
6626,0.842791,0.8313365,-0.2102893
6629,0.8289794,0.8166127,-0.2139789
6631,0.8289794,0.8166127,-0.2139789
6633,0.8173313,0.8042993,-0.2167048
6636,0.8173313,0.8042993,-0.2167048
6638,0.7947544,0.7795909,-0.2246844
6640,0.7838463,0.7674484,-0.2298502
6643,0.7838463,0.7674484,-0.2298502
6645,0.7750598,0.7571809,-0.2332305
6647,0.7750598,0.7571809,-0.2332305
6650,0.7795909,0.7615615,-0.234068
6652,0.7805943,0.7628451,-0.234068
6654,0.7805943,0.7628451,-0.234068
6658,0.7860898,0.7687222,-0.23239
6660,0.7860898,0.7687222,-0.23239
6662,0.7957386,0.7798419,-0.2272819
6665,0.7957386,0.7798419,-0.2272819
6667,0.7957386,0.7798419,-0.2272819
6669,0.8038125,0.7890712,-0.2238118
6672,0.8038125,0.7890712,-0.2238118
6674,0.8074558,0.7932757,-0.2211734
6676,0.8074558,0.7932757,-0.2211734
6679,0.8122882,0.798684,-0.2167048
6681,0.8122882,0.798684,-0.2167048
6683,0.8154138,0.8021067,-0.2139789
6686,0.8199606,0.8074558,-0.2121421
6688,0.8199606,0.8074558,-0.2121421
6690,0.8218675,0.8093922,-0.2093567
6693,0.8218675,0.8093922,-0.2093567
6695,0.8235324,0.8120472,-0.2065338
6697,0.825194,0.8134917,-0.2055842
6701,0.825194,0.8134917,-0.2055842
6703,0.8259051,0.814213,-0.2055842
6705,0.8259051,0.814213,-0.2055842
6708,0.8280347,0.8170919,-0.2027088
6710,0.8280347,0.8170919,-0.2027088
6712,0.8285072,0.81781,-0.2007689
6714,0.8266156,0.8161334,-0.199792
6717,0.8266156,0.8161334,-0.199792
6719,0.82377,0.8137322,-0.1988102
6721,0.82377,0.8137322,-0.1988102
6724,0.8242449,0.814213,-0.1978235
6726,0.8247196,0.8149337,-0.1968319
6728,0.8247196,0.8149337,-0.1968319
6731,0.82377,0.8137322,-0.1968319
6733,0.82377,0.8137322,-0.1968319
6735,0.8228193,0.812529,-0.1978235
6738,0.8228193,0.812529,-0.1978235
6740,0.82377,0.8132511,-0.1978235
6743,0.8240075,0.8134917,-0.199792
6746,0.8240075,0.8134917,-0.199792
6748,0.825194,0.8146936,-0.2007689
6750,0.825194,0.8146936,-0.2007689
6753,0.8256681,0.8149337,-0.2036718
6755,0.8277984,0.8163731,-0.2027088
6757,0.8277984,0.8163731,-0.2027088
6760,0.8303944,0.8190054,-0.2046302
6762,0.8303944,0.8190054,-0.2046302
6764,0.8332174,0.8213912,-0.2055842
6767,0.8332174,0.8213912,-0.2055842
6769,0.8369665,0.8247196,-0.20842
6771,0.8395343,0.8275619,-0.2093567
6774,0.8395343,0.8275619,-0.2093567
6776,0.8434873,0.8308656,-0.2130625
6778,0.8434873,0.8308656,-0.2130625
6781,0.8478836,0.835094,-0.2139789
6784,0.8478836,0.835094,-0.2139789
6786,0.8511084,0.8386015,-0.2158
6789,0.8575217,0.8437192,-0.2185032
6791,0.8575217,0.8437192,-0.2185032
6793,0.8600281,0.8460353,-0.2211734
6796,0.8600281,0.8460353,-0.2211734
6798,0.8762568,0.8620735,-0.2255535
6800,0.8882338,0.8742447,-0.2264194
6802,0.8882338,0.8742447,-0.2264194
6805,0.910857,0.8967844,-0.2298502
6807,0.910857,0.8967844,-0.2298502
6809,0.9215358,0.9074132,-0.2306999
6812,0.9215358,0.9074132,-0.2306999
6814,0.932722,0.9185583,-0.2332305
6816,0.9499753,0.9356545,-0.2365626
6819,0.9499753,0.9356545,-0.2365626
6821,0.9528548,0.9383693,-0.2382111
6823,0.9528548,0.9383693,-0.2382111
6827,0.9555206,0.9408684,-0.2398483
6829,0.9559301,0.9406604,-0.2430897
6831,0.9559301,0.9406604,-0.2430897
6834,0.9542912,0.9389946,-0.2454926
6836,0.9542912,0.9389946,-0.2454926
6838,0.9505931,0.9341894,-0.2502292
6841,0.9505931,0.9341894,-0.2502292
6843,0.9481196,0.9312522,-0.2525642
6845,0.9454328,0.9276733,-0.2564087
6848,0.9454328,0.9276733,-0.2564087
6850,0.9450188,0.926618,-0.2594432
6852,0.9450188,0.926618,-0.2594432
6855,0.9446045,0.9259842,-0.2601963
6857,0.9454328,0.9255615,-0.2661444
6859,0.9454328,0.9255615,-0.2661444
6862,0.9456397,0.9257729,-0.2690692
6864,0.9456397,0.9257729,-0.2690692
6866,0.9149297,0.8906538,-0.2832403
6870,0.9149297,0.8906538,-0.2832403
6872,0.9035233,0.8775957,-0.2887141
6874,0.8740209,0.8439512,-0.301316
6877,0.8740209,0.8439512,-0.301316
6879,0.8604831,0.828271,-0.3071049
6881,0.8604831,0.828271,-0.3071049
6884,0.8492672,0.8154138,-0.311533
6886,0.8492672,0.8154138,-0.311533
6888,0.8400003,0.8042993,-0.3165179
6890,0.8247196,0.7865875,-0.3232465
6893,0.8247196,0.7865875,-0.3232465
6895,0.8187665,0.7795909,-0.3250574
6897,0.8187665,0.7795909,-0.3250574
6900,0.8270888,0.7888232,-0.3232465
6902,0.8462666,0.8106001,-0.315899
6904,0.8462666,0.8106001,-0.315899
6907,0.8561515,0.8223435,-0.3121605
6909,0.8561515,0.8223435,-0.3121605
6912,0.8731248,0.8418618,-0.3051875
6915,0.8731248,0.8418618,-0.3051875
6917,0.8798226,0.8499581,-0.3006659
6919,0.8919711,0.8638874,-0.2954137
6922,0.8919711,0.8638874,-0.2954137
6924,0.8972207,0.8697567,-0.2934199
6926,0.8972207,0.8697567,-0.2934199
6929,0.9013549,0.8744686,-0.2914124
6931,0.9419076,0.9204736,-0.2719625
6933,0.9419076,0.9204736,-0.2719625
6936,0.9571576,0.9377435,-0.2654082
6938,0.9571576,0.9377435,-0.2654082
6940,0.9642863,0.9458466,-0.2609472
6943,0.9642863,0.9458466,-0.2609472
6945,0.96773,0.9497693,-0.2586879
6947,0.9847674,0.9689425,-0.249446
6950,0.9847674,0.9689425,-0.249446
6952,1.012204,0.9991678,-0.235734
6955,1.012204,0.9991678,-0.235734
6958,1.026601,1.015293,-0.2264194
6960,1.026601,1.015293,-0.2264194
6962,1.039293,1.029076,-0.2185032
6965,1.061463,1.053692,-0.2027088
6967,1.061463,1.053692,-0.2027088
6969,1.070823,1.063856,-0.1978235
6972,1.070823,1.063856,-0.1978235
6974,1.097714,1.091995,-0.1876719
6976,1.108711,1.103581,-0.183454
6978,1.108711,1.103581,-0.183454
6981,1.108358,1.103226,-0.1855749
6983,1.108358,1.103226,-0.1855749
6985,1.10977,1.104467,-0.1855749
6988,1.10977,1.104467,-0.1855749
6990,1.118376,1.113642,-0.1823843
6992,1.134187,1.130039,-0.1769387
6995,1.134187,1.130039,-0.1769387
6998,1.123091,1.118551,-0.1813082
7000,1.123091,1.118551,-0.1813082
7003,1.108182,1.103404,-0.1845175
7005,1.080827,1.075018,-0.1928145
7007,1.080827,1.075018,-0.1928145
7010,1.058879,1.052391,-0.1988102
7012,1.058879,1.052391,-0.1988102
7014,1.027363,1.0201,-0.2065338
7017,1.027363,1.0201,-0.2065338
7019,1.016063,1.008525,-0.20842
7021,0.9861575,0.9781881,-0.2121421
7024,0.9861575,0.9781881,-0.2121421
7026,0.9689425,0.9606267,-0.2139789
7028,0.9689425,0.9606267,-0.2139789
7031,0.9312522,0.9221727,-0.2167048
7033,0.916639,0.9076288,-0.2176059
7035,0.916639,0.9076288,-0.2176059
7038,0.9026566,0.8935054,-0.2176059
7041,0.9026566,0.8935054,-0.2176059
7043,0.8807117,0.8717791,-0.2167048
7046,0.8807117,0.8717791,-0.2167048
7048,0.8715547,0.8625273,-0.2158
7050,0.8568369,0.8478836,-0.2139789
7053,0.8568369,0.8478836,-0.2139789
7055,0.8513383,0.8425589,-0.2130625
7057,0.8513383,0.8425589,-0.2130625
7059,0.8464977,0.8376676,-0.2112177
7062,0.8464977,0.8376676,-0.2112177
7064,0.8388348,0.8303944,-0.2093567
7066,0.8357967,0.8275619,-0.20842
7069,0.8357967,0.8275619,-0.20842
7071,0.8306301,0.8223435,-0.2055842
7073,0.8306301,0.8223435,-0.2055842
7076,0.8280347,0.8199606,-0.2055842
7078,0.8254311,0.8170919,-0.2055842
7080,0.8254311,0.8170919,-0.2055842
7084,0.8242449,0.8158936,-0.2046302
7086,0.8242449,0.8158936,-0.2046302
7088,0.8213912,0.8132511,-0.2036718
7091,0.8213912,0.8132511,-0.2036718
7093,0.8197219,0.8115651,-0.2036718
7095,0.8182884,0.8101172,-0.2036718
7098,0.8182884,0.8101172,-0.2036718
7100,0.8156537,0.8074558,-0.2027088
7102,0.8156537,0.8074558,-0.2027088
7105,0.814213,0.8057577,-0.2027088
7107,0.8115651,0.8028382,-0.2036718
7109,0.8115651,0.8028382,-0.2036718
7112,0.8101172,0.8013745,-0.2036718
7114,0.8101172,0.8013745,-0.2036718
7116,0.8055148,0.7967216,-0.2036718
7119,0.8055148,0.7967216,-0.2036718
7121,0.7974581,0.7885751,-0.2046302
7123,0.7940154,0.7850935,-0.2036718
7127,0.7940154,0.7850935,-0.2036718
7129,0.7910526,0.7820969,-0.2036718
7131,0.7910526,0.7820969,-0.2036718
7134,0.7853427,0.7763211,-0.2046302
7136,0.7853427,0.7763211,-0.2046302
7138,0.783097,0.7735435,-0.2046302
7141,0.783097,0.7735435,-0.2055842
7143,0.783097,0.7735435,-0.2055842
7145,0.783097,0.7732905,-0.2065338
7147,0.783097,0.7732905,-0.2065338
7150,0.7845948,0.774302,-0.2093567
7152,0.7848442,0.774302,-0.2093567
7154,0.7848442,0.774302,-0.2093567
7157,0.7845948,0.7735435,-0.2121421
7159,0.7845948,0.7735435,-0.2121421
7161,0.7843454,0.7730374,-0.2130625
7164,0.7843454,0.7730374,-0.2130625
7166,0.7873334,0.7755645,-0.2158
7169,0.7932757,0.7810954,-0.2185032
7172,0.7932757,0.7810954,-0.2185032
7174,0.7959845,0.7833468,-0.220287
7176,0.7959845,0.7833468,-0.220287
7179,0.7996635,0.7863387,-0.2229358
7181,0.8011303,0.7875819,-0.2238118
7183,0.8011303,0.7875819,-0.2238118
7186,0.8018627,0.7883269,-0.2264194
7188,0.8018627,0.7883269,-0.2264194
7190,0.8038125,0.7898148,-0.2306999
7193,0.8038125,0.7898148,-0.2306999
7195,0.8045425,0.7898148,-0.2315465
7197,0.806971,0.7920414,-0.2349025
7200,0.806971,0.7920414,-0.2349025
7202,0.8079404,0.7927822,-0.2365626
7204,0.8079404,0.7927822,-0.2365626
7207,0.826142,0.8115651,-0.2349025
7209,0.8536337,0.8402332,-0.2315465
7212,0.8536337,0.8402332,-0.2315465
7215,0.8572935,0.8437192,-0.23239
7217,0.8572935,0.8437192,-0.23239
7219,0.8638874,0.8499581,-0.2349025
7222,0.8638874,0.8499581,-0.2349025
7224,0.881156,0.8686311,-0.2298502
7226,0.9084908,0.8976567,-0.2211734
7229,0.9084908,0.8976567,-0.2211734
7231,0.9065502,0.8956926,-0.2229358
7233,0.9065502,0.8956926,-0.2229358
7235,0.9056864,0.8943809,-0.2246844
7238,0.9056864,0.8943809,-0.2246844
7240,0.8963478,0.8838168,-0.2306999
7242,0.8937243,0.8804895,-0.2332305
7245,0.8937243,0.8804895,-0.2332305
7247,0.8932863,0.8793777,-0.2390311
7249,0.8932863,0.8793777,-0.2390311
7252,0.8935054,0.8791551,-0.2406627
7255,0.9318824,0.91941,-0.234068
7257,0.9318824,0.91941,-0.234068
7260,0.9464671,0.9346082,-0.2306999
7262,0.9464671,0.9346082,-0.2306999
7264,0.9642863,0.9536759,-0.2246844
7267,0.9642863,0.9536759,-0.2246844
7269,0.9932752,0.9839723,-0.2167048
7271,1.00736,0.998776,-0.2130625
7274,1.00736,0.998776,-0.2130625
7276,1.030976,1.023355,-0.2065338
7278,1.030976,1.023355,-0.2065338
7281,1.038163,1.030976,-0.2036718
7283,1.051274,1.044739,-0.1988102
7285,1.051274,1.044739,-0.1988102
7288,1.055176,1.048852,-0.1978235
7290,1.055176,1.048852,-0.1978235
7292,1.055176,1.048852,-0.1978235
7296,1.055176,1.048852,-0.1978235
7298,1.055176,1.048852,-0.1978235
7300,1.057584,1.051461,-0.1958353
7303,1.057584,1.051461,-0.1958353
7305,1.062384,1.056844,-0.1928145
7307,1.062384,1.056844,-0.1928145
7310,1.064776,1.059063,-0.191797
7312,1.049412,1.043052,-0.1978235
7314,1.049412,1.043052,-0.1978235
7317,1.035332,1.028125,-0.2036718
7319,1.035332,1.028125,-0.2036718
7321,1.02412,1.016256,-0.20842
7323,1.02412,1.016256,-0.20842
7326,1.023547,1.015871,-0.20842
7328,1.007748,0.9995593,-0.2121421
7330,1.007748,0.9995593,-0.2121421
7333,0.9851648,0.9757847,-0.2185032
7335,0.9851648,0.9757847,-0.2185032
7337,0.9693463,0.9591998,-0.2238118
7341,0.9693463,0.9591998,-0.2238118
7343,0.9563395,0.9456397,-0.2281412
7345,0.9323022,0.920261,-0.234068
7348,0.9323022,0.920261,-0.234068
7350,0.9123595,0.8991814,-0.2390311
7352,0.9123595,0.8991814,-0.2390311
7355,0.9050379,0.8915322,-0.2398483
7357,0.8989637,0.8851442,-0.2406627
7359,0.8989637,0.8851442,-0.2406627
7362,0.9026566,0.8895546,-0.2382111
7364,0.9026566,0.8895546,-0.2382111
7366,0.9097822,0.8972207,-0.235734
7369,0.9097822,0.8972207,-0.235734
7371,0.913217,0.9013549,-0.2332305
7373,0.910857,0.8989637,-0.23239
7376,0.910857,0.8989637,-0.23239
7378,0.9065502,0.8948184,-0.23239
7380,0.9065502,0.8948184,-0.23239
7384,0.9043891,0.8928481,-0.2332305
7386,0.9028733,0.8913127,-0.234068
7388,0.899834,0.8880135,-0.2349025
7391,0.8972207,0.8853652,-0.2349025
7393,0.8972207,0.8853652,-0.2349025
7395,0.8948184,0.8831524,-0.2365626
7398,0.8948184,0.8831524,-0.2365626
7400,0.8880135,0.8762568,-0.2365626
7402,0.8851442,0.873349,-0.2365626
7405,0.8851442,0.873349,-0.2365626
7407,0.8833739,0.8711056,-0.2373883
7409,0.8833739,0.8711056,-0.2373883
7411,0.8822656,0.8699816,-0.2382111
7414,0.8822656,0.8699816,-0.2382111
7416,0.9149297,0.9048218,-0.2264194
7418,0.9270402,0.917919,-0.2220564
7421,0.9270402,0.917919,-0.2220564
7424,0.9481196,0.939828,-0.2167048
7426,0.9481196,0.939828,-0.2167048
7429,0.9954398,0.9889315,-0.2036718
7431,1.0201,1.014714,-0.1958353
7433,1.0201,1.014714,-0.1958353
7436,1.041362,1.036654,-0.1907741
7438,1.041362,1.036654,-0.1907741
7440,1.062936,1.058324,-0.1866263
7443,1.062936,1.058324,-0.1866263
7445,1.072102,1.067712,-0.1855749
7447,1.101096,1.097357,-0.1769387
7450,1.101096,1.097357,-0.1769387
7452,1.113291,1.10977,-0.174713
7454,1.113291,1.10977,-0.174713
7457,1.126396,1.123091,-0.1735894
7459,1.148759,1.145688,-0.1678588
7461,1.148759,1.145688,-0.1678588
7464,1.159272,1.156229,-0.1678588
7467,1.159272,1.156229,-0.1678588
7469,1.177195,1.174365,-0.165511
7472,1.177195,1.174365,-0.165511
7474,1.183825,1.181177,-0.1643245
7476,1.190419,1.187786,-0.1643245
7479,1.190419,1.187786,-0.1643245
7481,1.175032,1.171696,-0.1713202
7483,1.175032,1.171696,-0.1713202
7486,1.170192,1.166675,-0.1758294
7488,1.167011,1.163148,-0.1769387
7490,1.167011,1.163148,-0.1769387
7493,1.14944,1.145005,-0.183454
7495,1.14944,1.145005,-0.183454
7497,1.139523,1.134532,-0.1887116
7499,1.139523,1.134532,-0.1887116
7502,1.126222,1.120649,-0.1938267
7504,1.134187,1.128479,-0.191797
7506,1.134187,1.128479,-0.191797
7510,1.147054,1.141924,-0.1887116
7512,1.147054,1.141924,-0.1887116
7514,1.141239,1.135911,-0.191797
7517,1.141239,1.135911,-0.191797
7519,1.134877,1.129519,-0.1928145
7521,1.128132,1.122393,-0.1948336
7524,1.128132,1.122393,-0.1948336
7526,1.123439,1.117851,-0.1958353
7528,1.123439,1.117851,-0.1958353
7531,1.127785,1.121696,-0.1948336
7533,1.134014,1.128652,-0.191797
7535,1.134014,1.128652,-0.191797
7538,1.137116,1.132115,-0.1887116
7540,1.137116,1.132115,-0.1887116
7542,1.135739,1.130731,-0.1887116
7545,1.135739,1.130731,-0.1887116
7547,1.128132,1.123091,-0.1897456
7549,1.122916,1.117501,-0.1907741
7553,1.122916,1.117501,-0.1907741
7555,1.1196,1.114169,-0.191797
7557,1.1196,1.114169,-0.191797
7560,1.107652,1.102162,-0.1928145
7562,1.099851,1.094143,-0.1938267
7564,1.099851,1.094143,-0.1938267
7567,1.094143,1.088405,-0.1938267
7569,1.094143,1.088405,-0.1938267
7571,1.087146,1.081189,-0.1948336
7574,1.087146,1.081189,-0.1948336
7576,1.085164,1.079559,-0.1958353
7578,1.095751,1.090381,-0.191797
7581,1.095751,1.090381,-0.191797
7583,1.106061,1.101096,-0.1876719
7585,1.106061,1.101096,-0.1876719
7587,1.115222,1.110475,-0.1855749
7590,1.115749,1.111003,-0.1845175
7592,1.116976,1.112236,-0.183454
7595,1.118726,1.113818,-0.183454
7598,1.118726,1.113818,-0.183454
7600,1.112059,1.107475,-0.1855749
7602,1.112059,1.107475,-0.1855749
7605,1.110827,1.106061,-0.1866263
7607,1.120649,1.115924,-0.183454
7609,1.129519,1.125006,-0.1813082
7612,1.12657,1.12187,-0.183454
7614,1.12657,1.12187,-0.183454
7616,1.124484,1.1196,-0.1855749
7619,1.124484,1.1196,-0.1855749
7621,1.125006,1.11995,-0.1866263
7623,1.103049,1.09807,-0.1876719
7626,1.103049,1.09807,-0.1876719
7628,1.096287,1.090919,-0.1876719
7630,1.096287,1.090919,-0.1876719
7633,1.098961,1.094322,-0.1813082
7635,1.101096,1.096644,-0.1780411
7638,1.101096,1.096644,-0.1780411
7641,1.10429,1.100029,-0.174713
7643,1.10429,1.100029,-0.174713
7645,1.110475,1.106591,-0.1701742
7648,1.110475,1.106591,-0.1701742
7650,1.112939,1.109417,-0.1678588
7652,1.118726,1.114871,-0.1690205
7655,1.118726,1.114871,-0.1690205
7657,1.1196,1.116275,-0.166689
7659,1.1196,1.116275,-0.166689
7662,1.122742,1.119426,-0.165511
7664,1.122742,1.119076,-0.165511
7666,1.122742,1.119076,-0.165511
7668,1.123613,1.120125,-0.1643245
7671,1.123613,1.120125,-0.1643245
7673,1.111355,1.107298,-0.1713202
7675,1.111355,1.107298,-0.1713202
7678,1.093785,1.089124,-0.1791368
7681,1.095751,1.090919,-0.1802258
7683,1.097714,1.093069,-0.1813082
7686,1.099139,1.0945,-0.1802258
7688,1.099139,1.0945,-0.1802258
7690,1.103935,1.099139,-0.1802258
7693,1.103935,1.099139,-0.1802258
7695,1.111355,1.106945,-0.1791368
7697,1.110122,1.10553,-0.1823843
7700,1.110122,1.10553,-0.1823843
7702,1.109064,1.103758,-0.1866263
7704,1.109064,1.103758,-0.1866263
7707,1.118726,1.113642,-0.1855749
7709,1.133669,1.128999,-0.183454
7711,1.133669,1.128999,-0.183454
7714,1.131596,1.126917,-0.1855749
7716,1.131596,1.126917,-0.1855749
7718,1.129692,1.124658,-0.1876719
7721,1.129692,1.124658,-0.1876719
7724,1.125179,1.120299,-0.1897456
7726,1.119775,1.114696,-0.1938267
7729,1.119775,1.114696,-0.1938267
7731,1.115924,1.110475,-0.1938267
7733,1.115924,1.110475,-0.1938267
7736,1.111531,1.106061,-0.1968319
7738,1.102162,1.096287,-0.2007689
7740,1.102162,1.096287,-0.2007689
7743,1.089303,1.083359,-0.2046302
7745,1.089303,1.083359,-0.2046302
7747,1.080284,1.073743,-0.2046302
7750,1.080284,1.073743,-0.2046302
7752,1.067529,1.06091,-0.2046302
7754,1.061094,1.054248,-0.2046302
7756,1.061094,1.054248,-0.2046302
7759,1.052577,1.045301,-0.2027088
7761,1.052577,1.045301,-0.2027088
7763,1.046424,1.039293,-0.2027088
7767,1.03854,1.031545,-0.2017412
7769,1.03854,1.031545,-0.2017412
7771,1.034954,1.027744,-0.2007689
7774,1.034954,1.027744,-0.2007689
7776,1.030596,1.022973,-0.2007689
7778,1.030596,1.022973,-0.2007689
7781,1.029836,1.022207,-0.2007689
7783,1.029456,1.021825,-0.199792
7785,1.029456,1.021825,-0.199792
7788,1.028315,1.020867,-0.2007689
7790,1.028315,1.020867,-0.2007689
7792,1.027934,1.0201,-0.2027088
7795,1.027934,1.0201,-0.2027088
7797,1.027744,1.019716,-0.2027088
7799,1.026601,1.01818,-0.2036718
7802,1.026601,1.01818,-0.2036718
7804,1.026982,1.018372,-0.2065338
7806,1.026982,1.018372,-0.2065338
7810,1.027934,1.018948,-0.2065338
7812,1.028696,1.0201,-0.2074791
7814,1.028696,1.0201,-0.2074791
7817,1.055362,1.047732,-0.2017412
7819,1.055362,1.047732,-0.2017412
7821,1.079559,1.073196,-0.1968319
7824,1.079559,1.073196,-0.1968319
7826,1.091278,1.085344,-0.1938267
7828,1.101273,1.095751,-0.1928145
7831,1.101273,1.095751,-0.1928145
7833,1.118201,1.113115,-0.1887116
7835,1.118201,1.113115,-0.1887116
7838,1.124832,1.119775,-0.1866263
7840,1.135911,1.13125,-0.1866263
7842,1.135911,1.13125,-0.1866263
7844,1.140724,1.135739,-0.1866263
7847,1.140724,1.135739,-0.1866263
7849,1.150801,1.145859,-0.1876719
7852,1.150801,1.145859,-0.1876719
7855,1.154875,1.15012,-0.1876719
7857,1.130385,1.123613,-0.199792
7859,1.130385,1.123613,-0.199792
7862,1.121521,1.113994,-0.2046302
7864,1.121521,1.113994,-0.2046302
7866,1.157752,1.148077,-0.2211734
7869,1.157752,1.148077,-0.2211734
7871,1.173198,1.162979,-0.2289973
7873,1.175198,1.164661,-0.2298502
7876,1.175198,1.164661,-0.2298502
7878,1.177029,1.166507,-0.2306999
7880,1.177029,1.166507,-0.2306999
7883,1.174032,1.16382,-0.2281412
7885,1.173365,1.163148,-0.2272819
7887,1.173365,1.163148,-0.2272819
7890,1.168854,1.158596,-0.2264194
7892,1.168854,1.158596,-0.2264194
7895,1.167346,1.157583,-0.2255535
7898,1.167346,1.157583,-0.2255535
7900,1.094858,1.080827,-0.2486604
7902,1.068079,1.052205,-0.2571706
7905,1.068079,1.052205,-0.2571706
7907,1.046798,1.029456,-0.2609472
7909,1.046798,1.029456,-0.2609472
7912,1.013943,0.9946532,-0.2676108
7914,1.004247,0.9851648,-0.2661444
7916,1.004247,0.9851648,-0.2661444
7919,0.9885356,0.9691444,-0.2646699
7921,0.9885356,0.9691444,-0.2646699
7923,0.9981881,0.9805858,-0.2571706
7926,0.9981881,0.9805858,-0.2571706
7928,1.005804,0.9893272,-0.2533378
7930,1.032493,1.018948,-0.2390311
7932,1.032493,1.018948,-0.2390311
7936,1.04155,1.029076,-0.2349025
7938,1.04155,1.029076,-0.2349025
7940,1.048852,1.03722,-0.2315465
7943,1.060356,1.049784,-0.2264194
7945,1.060356,1.049784,-0.2264194
7947,1.081189,1.072284,-0.2167048
7950,1.081189,1.072284,-0.2167048
7952,1.090022,1.082094,-0.2112177
7954,1.090022,1.082094,-0.2112177
7957,1.087865,1.080465,-0.2102893
7959,1.083901,1.076837,-0.20842
7961,1.083901,1.076837,-0.20842
7964,1.086245,1.078834,-0.2102893
7966,1.086245,1.078834,-0.2102893
7968,1.088225,1.081551,-0.2121421
7971,1.088225,1.081551,-0.2121421
7973,1.090739,1.08372,-0.2121421
7975,1.092353,1.085524,-0.2130625
7979,1.092353,1.085524,-0.2130625
7981,1.095037,1.088225,-0.2130625
7983,1.095037,1.088225,-0.2130625
7986,1.096287,1.089663,-0.2130625
7988,1.10074,1.094322,-0.2121421
7990,1.10074,1.094322,-0.2121421
7993,1.101806,1.095573,-0.2121421
7995,1.101806,1.095573,-0.2121421
7997,1.136083,1.129692,-0.2139789
8000,1.136083,1.129692,-0.2139789
8002,1.187456,1.180846,-0.2176059
8004,1.187621,1.181177,-0.2176059
8007,1.187621,1.181177,-0.2176059
8009,1.188609,1.182006,-0.2185032
8011,1.188609,1.182006,-0.2185032
8014,1.179354,1.172698,-0.2176059
8016,1.17203,1.165501,-0.2176059
8018,1.17203,1.165501,-0.2176059
8020,1.189761,1.182667,-0.220287
8024,1.189761,1.182667,-0.220287
8026,1.20966,1.202033,-0.2220564
8028,1.20966,1.202033,-0.2220564
8031,1.232259,1.224772,-0.220287
8033,1.237962,1.23067,-0.2176059
8035,1.237962,1.23067,-0.2176059
8038,1.24301,1.236222,-0.2139789
8040,1.24301,1.236222,-0.2139789
8042,1.227007,1.221252,-0.2027088
8045,1.220611,1.215309,-0.1978235
8047,1.220611,1.215309,-0.1978235
8049,1.212085,1.207232,-0.1897456
8052,1.212085,1.207232,-0.1897456
8054,1.212085,1.207232,-0.1897456
8056,1.212085,1.207232,-0.1897456
8059,1.212085,1.207232,-0.1897456
8061,1.20561,1.200893,-0.1866263
8064,1.20561,1.200893,-0.1866263
8067,1.20073,1.196485,-0.1845175
8069,1.20073,1.196485,-0.1845175
8071,1.194685,1.190583,-0.1813082
8074,1.194685,1.190583,-0.1813082
8076,1.19321,1.189103,-0.1791368
8078,1.19009,1.186302,-0.1780411
8081,1.19009,1.186302,-0.1780411
8083,1.188609,1.184651,-0.174713
8085,1.188609,1.184651,-0.174713
8088,1.184982,1.181343,-0.1724585
8090,1.183164,1.17952,-0.1701742
8092,1.183164,1.17952,-0.1701742
8095,1.180515,1.177361,-0.166689
8097,1.180515,1.177361,-0.166689
8099,1.15792,1.154197,-0.1713202
8102,1.15792,1.154197,-0.1713202
8104,1.139351,1.135049,-0.1758294
8107,1.090022,1.084623,-0.1855749
8109,1.090022,1.084623,-0.1855749
8112,1.071371,1.065327,-0.1887116
8114,1.071371,1.065327,-0.1887116
8116,1.00736,0.9993636,-0.2017412
8119,0.9829774,0.974179,-0.2055842
8121,0.9829774,0.974179,-0.2055842
8123,0.9507989,0.9421154,-0.2046302
8126,0.9507989,0.9421154,-0.2046302
8128,0.9377435,0.9287274,-0.2055842
8130,0.9377435,0.9287274,-0.2055842
8133,0.9136455,0.9043891,-0.2046302
8135,0.8753631,0.8661495,-0.2055842
8137,0.8753631,0.8661495,-0.2055842
8140,0.839068,0.829923,-0.2055842
8142,0.839068,0.829923,-0.2055842
8144,0.8242449,0.8149337,-0.2055842
8147,0.8242449,0.8149337,-0.2055842
8150,0.8146936,0.8055148,-0.2036718
8152,0.7967216,0.7878303,-0.2036718
8155,0.7967216,0.7878303,-0.2036718
8157,0.812529,0.8028382,-0.20842
8159,0.812529,0.8028382,-0.20842
8162,0.8242449,0.8139727,-0.2121421
8164,0.8545501,0.8432553,-0.2193969
8166,0.8545501,0.8432553,-0.2193969
8169,0.8645667,0.8524867,-0.2229358
8171,0.8645667,0.8524867,-0.2229358
8173,0.8963478,0.8829308,-0.2315465
8176,0.8963478,0.8829308,-0.2315465
8178,0.906766,0.892629,-0.234068
8180,0.9213235,0.9069818,-0.2365626
8183,0.9213235,0.9069818,-0.2365626
8185,0.9404523,0.9255615,-0.2398483
8187,0.9404523,0.9255615,-0.2398483
8190,0.9526493,0.9379522,-0.2398483
8193,0.9620516,0.9475003,-0.2398483
8195,0.9620516,0.9475003,-0.2398483
8197,0.9803861,0.966516,-0.2382111
8200,0.9803861,0.966516,-0.2382111
8202,0.9865541,0.9725708,-0.2382111
8204,0.9865541,0.9725708,-0.2382111
8207,0.9960293,0.98238,-0.2365626
8209,1.008136,0.9952432,-0.235734
8211,1.008136,0.9952432,-0.235734
8214,1.040234,1.027173,-0.2406627
8216,1.040234,1.027173,-0.2406627
8218,1.087865,1.07429,-0.2470816
8221,1.099495,1.086065,-0.2486604
8223,1.099495,1.086065,-0.2486604
8225,1.109417,1.09593,-0.2502292
8228,1.109417,1.09593,-0.2502292
8230,1.134877,1.123787,-0.2390311
8232,1.134877,1.123787,-0.2390311
8236,1.14961,1.140038,-0.2289973
8238,1.144663,1.136256,-0.2211734
8240,1.144663,1.136256,-0.2211734
8243,1.143123,1.135394,-0.2193969
8245,1.143123,1.135394,-0.2193969
8247,1.12657,1.119076,-0.2176059
8250,1.12657,1.119076,-0.2176059
8252,1.101984,1.095037,-0.2148914
8254,1.091278,1.084442,-0.2148914
8257,1.091278,1.084442,-0.2148914
8259,1.075382,1.068811,-0.2139789
8261,1.075382,1.068811,-0.2139789
8264,1.091815,1.086605,-0.2065338
8266,1.116625,1.113115,-0.1948336
8268,1.116625,1.113115,-0.1948336
8271,1.138148,1.135394,-0.1887116
8273,1.138148,1.135394,-0.1887116
8275,1.171195,1.169523,-0.1802258
8278,1.171195,1.169523,-0.1802258
8281,1.185642,1.184156,-0.1758294
8283,1.20788,1.207069,-0.1701742
8285,1.20788,1.207069,-0.1701742
8288,1.216918,1.216436,-0.1678588
8290,1.216918,1.216436,-0.1678588
8292,1.235431,1.235272,-0.1631294
8295,1.24301,1.24301,-0.1619255
8297,1.24301,1.24301,-0.1619255
8299,1.260519,1.260674,-0.1619255
8302,1.260519,1.260674,-0.1619255
8304,1.269337,1.269337,-0.1631294
8306,1.269337,1.269337,-0.1631294
8309,1.283289,1.283289,-0.1643245
8311,1.293315,1.293163,-0.166689
8313,1.293315,1.293163,-0.166689
8316,1.297092,1.29679,-0.1690205
8318,1.297092,1.29679,-0.1690205
8321,1.304763,1.304313,-0.1713202
8324,1.304763,1.304313,-0.1713202
8326,1.308507,1.307759,-0.1735894
8328,1.315071,1.314029,-0.1769387
8331,1.315071,1.314029,-0.1769387
8333,1.32101,1.319676,-0.1791368
8335,1.32101,1.319676,-0.1791368
8338,1.335595,1.333248,-0.1887116
8340,1.343338,1.340275,-0.1928145
8342,1.343338,1.340275,-0.1928145
8345,1.356529,1.352773,-0.2027088
8347,1.356529,1.352773,-0.2027088
8349,1.362287,1.357971,-0.2065338
8352,1.362287,1.357971,-0.2065338
8354,1.367163,1.362574,-0.2093567
8356,1.380126,1.374443,-0.2193969
8359,1.380126,1.374443,-0.2193969
8361,1.39072,1.383667,-0.2272819
8364,1.39072,1.383667,-0.2272819
8366,1.395216,1.387762,-0.23239
8369,1.403327,1.394935,-0.2398483
8371,1.403327,1.394935,-0.2398483
8373,1.406948,1.398018,-0.2430897
8376,1.406948,1.398018,-0.2430897
8378,1.412916,1.403466,-0.249446
8380,1.412916,1.403466,-0.249446
8383,1.415683,1.405556,-0.2533378
8385,1.420238,1.40931,-0.2594432
8387,1.420238,1.40931,-0.2594432
8390,1.42615,1.414577,-0.2661444
8392,1.42615,1.414577,-0.2661444
8394,1.428755,1.416651,-0.268341
8397,1.432175,1.419411,-0.2748253
8399,1.432175,1.419411,-0.2748253
8401,1.433677,1.420651,-0.276953
8404,1.433677,1.420651,-0.276953
8407,1.436677,1.422441,-0.2846186
8409,1.436677,1.422441,-0.2846186
8412,1.438311,1.423266,-0.2914124
8414,1.438719,1.423266,-0.2940859
8416,1.438719,1.423266,-0.2940859
8419,1.439806,1.423678,-0.2980514
8421,1.439806,1.423678,-0.2980514
8423,1.438311,1.421477,-0.301316
8426,1.438311,1.421477,-0.301316
8428,1.436541,1.418721,-0.3083766
8430,1.439942,1.421615,-0.3134116
8433,1.439942,1.421615,-0.3134116
8435,1.441436,1.422853,-0.315279
8437,1.441436,1.422853,-0.315279
8440,1.438174,1.419273,-0.315899
