time,turnedAngle,pitchAngle,yawAngle

	??bj
453448,0,0,0
453451,0,0,0
453453,0,0,0
453456,0,0,0
453458,0,0,0
453462,0,0,0
453464,0,0,0
453467,0,0,0
453469,0,0,0
453472,0,0,0
453474,0,0,0
453477,0,0,0
453479,0,0,0
453482,0,0,0
453484,0,0,0
453487,0,0,0
453489,0,0,0
453492,0,0,0
453494,0,0,0
453497,0,0,0
453499,0,0,0
453502,0,0,0
453505,0,0,0
453508,0,0,0
453510,0,0,0
453513,0,0,0
453515,0,0,0
453518,0,0,0
453520,0,0,0
453523,0,0,0
453525,0,0,0
453528,0,0,0
453530,0,0,0
453533,0,0,0
453535,0,0,0
453538,0,0,0
453540,0,0,0
453543,0,0,0
453545,0,0,0
453549,0,0,0
453551,0,0,0
453554,0,0,0
453556,0,0,0
453559,0,0,0
453561,0,0,0
453564,0,0,0
453566,0,0,0
453569,0,0,0
453571,0,0,0
453574,0,0,0
453576,0,0,0
453578,0,0,0
453581,0,0,0
453583,0,0,0
453586,0,0,0
453588,0,0,0
453592,0,0,0
453594,0,0,0
453597,0,0,0
453599,0,0,0
453602,0,0,0
453604,0,0,0
453607,0,0,0
453609,0,0,0
453612,0,0,0
453614,0,0,0
453617,0,0,0
453619,0,0,0
453622,0,0,0
453624,0,0,0
453627,0,0,0
453629,0,0,0
453633,0,0,0
453635,0,0,0
453638,0,0,0
453640,0,0,0
453643,0,0,0
453645,0,0,0
453648,0,0,0
453650,0,0,0
453653,0,0,0
453655,0,0,0
453658,0,0,0
453660,0,0,0
453663,0,0,0
453665,0,0,0
453668,0,0,0
453670,0,0,0
453673,0,0,0
453676,0,0,0
453679,0,0,0
453681,0,0,0
453684,0,0,0
453686,0,0,0
453689,0,0,0
453691,0,0,0
453694,0,0,0
453696,0,0,0
453699,0,0,0
453701,0,0,0
453704,0,0,0
453706,0,0,0
453708,0,0,0
453711,0,0,0
453713,0,0,0
453716,0,0,0
453719,0,0,0
453722,0,0,0
453724,0,0,0
453727,0,0,0
453729,0,0,0
453732,0,0,0
453734,0,0,0
453737,0,0,0
453739,0,0,0
453742,0,0,0
453744,0,0,0
453747,0,0,0
453749,0,0,0
453752,0,0,0
453754,0,0,0
453757,0,0,0
453760,0,0,0
453763,0,0,0
453765,0,0,0
453768,0,0,0
453770,0,0,0
453773,0,0,0
453775,0,0,0
453778,0,0,0
453780,0,0,0
453783,0,0,0
453785,0,0,0
453788,0,0,0
453790,0,0,0
453793,0,0,0
453795,0,0,0
453798,0,0,0
453800,0,0,0
453804,0,0,0
453806,0,0,0
453809,0,0,0
453811,0,0,0
453814,0,0,0
453816,0,0,0
453819,0,0,0
453821,0,0,0
453824,0,0,0
453826,0,0,0
453829,0,0,0
453831,0,0,0
453834,0,0,0
453836,0,0,0
453838,0,0,0
453841,0,0,0
453843,0,0,0
453847,0,0,0
453849,0,0,0
453852,0,0,0
453854,0,0,0
453857,0,0,0
453859,0,0,0
453862,0,0,0
453864,0,0,0
453867,0,0,0
453869,0,0,0
453872,0,0,0
453874,0,0,0
453877,0,0,0
453879,0,0,0
453882,0,0,0
453884,0,0,0
453888,0,0,0
453890,0,0,0
453893,0,0,0
453895,0,0,0
453898,0,0,0
453900,0,0,0
453903,0,0,0
453905,0,0,0
453908,0,0,0
453910,0,0,0
453913,0,0,0
453915,0,0,0
453918,0,0,0
453920,0,0,0
453923,0,0,0
453925,0,0,0
453928,0,0,0
453931,0,0,0
453934,0,0,0
453936,0,0,0
453939,0,0,0
453941,0,0,0
453944,0,0,0
453946,0,0,0
453949,0,0,0
453951,0,0,0
453954,0,0,0
453956,0,0,0
453959,0,0,0
453961,0,0,0
453964,0,0,0
453966,0,0,0
453968,0,0,0
453971,0,0,0
453974,0,0,0
453977,0,0,0
453979,0,0,0
453982,0,0,0
453984,0,0,0
453987,0,0,0
453989,0,0,0
453992,0,0,0
453994,0,0,0
453997,0,0,0
453999,0,0,0
454002,0,0,0
454004,0,0,0
454007,0,0,0
454009,0,0,0
454012,0,0,0
454014,0,0,0
454018,0,0,0
454020,0,0,0
454023,0,0,0
454025,0,0,0
454028,0,0,0
454030,0,0,0
454033,0,0,0
454035,0,0,0
454038,0,0,0
454040,0,0,0
454043,0,0,0
454045,0,0,0
454048,0,0,0
454050,0,0,0
454053,0,0,0
454055,0,0,0
454059,0,0,0
454061,0,0,0
454064,0,0,0
454066,0,0,0
454069,0,0,0
454071,0,0,0
454074,0,0,0
454076,0,0,0
454079,0,0,0
454081,0,0,0
454084,0,0,0
454086,0,0,0
454089,0,0,0
454091,0,0,0
454094,0,0,0
454096,0,0,0
454098,0,0,0
454102,0,0,0
454104,0,0,0
454107,0,0,0
454109,0,0,0
454112,0,0,0
454114,0,0,0
454117,0,0,0
454119,0,0,0
454122,0,0,0
454124,0,0,0
454127,0,0,0
454129,0,0,0
454132,0,0,0
454134,0,0,0
454137,0,0,0
454139,0,0,0
454142,0,0,0
454145,0,0,0
454148,0,0,0
454150,0,0,0
454153,0,0,0
454155,0,0,0
454158,0,0,0
454160,0,0,0
454163,0,0,0
454165,0,0,0
454168,0,0,0
454170,0,0,0
454173,0,0,0
454175,0,0,0
454178,0,0,0
454180,0,0,0
454183,0,0,0
454185,0,0,0
454189,0,0,0
454191,0,0,0
454194,0,0,0
454196,0,0,0
454199,0,0,0
454201,0,0,0
454204,0,0,0
454206,0,0,0
454209,0,0,0
454211,0,0,0
454214,0,0,0
454216,0,0,0
454219,0,0,0
454221,0,0,0
454224,0,0,0
454226,0,0,0
454228,0,0,0
454232,0,0,0
454234,0,0,0
454237,0,0,0
454239,0,0,0
454242,0,0,0
454244,0,0,0
454247,0,0,0
454249,0,0,0
454252,0,0,0
454254,0,0,0
454257,0,0,0
454259,0,0,0
454262,0,0,0
454264,0,0,0
454267,0,0,0
454269,0,0,0
454273,0,0,0
454275,0,0,0
454278,0,0,0
454280,0,0,0
454283,0,0,0
454285,0,0,0
454288,0,0,0
454290,0,0,0
454293,0,0,0
454295,0,0,0
454298,0,0,0
454300,0,0,0
454303,0,0,0
454305,0,0,0
454308,0,0,0
454310,0,0,0
454313,0,0,0
454316,0,0,0
454319,0,0,0
454321,0,0,0
454324,0,0,0
454326,0,0,0
454329,0,0,0
454331,0,0,0
454334,0,0,0
454336,0,0,0
454339,0,0,0
454341,0,0,0
454344,0,0,0
454346,0,0,0
454349,0,0,0
454351,0,0,0
454354,0,0,0
454356,0,0,0
454359,0,0,0
454362,0,0,0
454364,0,0,0
454367,0,0,0
454369,0,0,0
454372,0,0,0
454374,0,0,0
454377,0,0,0
454379,0,0,0
454382,0,0,0
454384,0,0,0
454387,0,0,0
454389,0,0,0
454392,0,0,0
454394,0,0,0
454397,0,0,0
454400,0,0,0
454403,0,0,0
454405,0,0,0
454408,0,0,0
454410,0,0,0
454413,0,0,0
454415,0,0,0
454418,0,0,0
454420,0,0,0
454423,0,0,0
454425,0,0,0
454428,0,0,0
454430,0,0,0
454433,0,0,0
454435,0,0,0
454438,0,0,0
454440,0,0,0
454444,0,0,0
454446,0,0,0
454449,0,0,0
454451,0,0,0
454454,0,0,0
454456,0,0,0
454459,0,0,0
454461,0,0,0
454464,0,0,0
454466,0,0,0
454469,0,0,0
454471,0,0,0
454474,0,0,0
454476,0,0,0
454479,0,0,0
454481,0,0,0
454484,0,0,0
454487,0,0,0
454489,0,0,0
454492,0,0,0
454494,0,0,0
454497,0,0,0
454499,0,0,0
454502,0,0,0
454504,0,0,0
454507,0,0,0
454509,0,0,0
454512,0,0,0
454514,0,0,0
454517,0,0,0
454519,0,0,0
454522,0,0,0
454524,0,0,0
454528,0,0,0
454530,0,0,0
454533,0,0,0
454535,0,0,0
454538,0,0,0
454540,0,0,0
454543,0,0,0
454545,0,0,0
454548,0,0,0
454550,0,0,0
454553,0,0,0
454555,0,0,0
454558,0,0,0
454560,0,0,0
454563,0,0,0
454565,0,0,0
454568,0,0,0
454571,0,0,0
454574,0,0,0
454576,0,0,0
454579,0,0,0
454581,0,0,0
454584,0,0,0
454586,0,0,0
454589,0,0,0
454591,0,0,0
454594,0,0,0
454596,0,0,0
454599,0,0,0
454601,0,0,0
454604,0,0,0
454606,0,0,0
454609,0,0,0
454611,0,0,0
454615,0,0,0
454617,0,0,0
454619,0,0,0
454622,0,0,0
454624,0,0,0
454627,0,0,0
454629,0,0,0
454632,0,0,0
454634,0,0,0
454637,0,0,0
454639,0,0,0
454642,0,0,0
454644,0,0,0
454647,0,0,0
454649,0,0,0
454652,0,0,0
454654,0,0,0
454658,0,0,0
454660,0,0,0
454663,0,0,0
454665,0,0,0
454668,0,0,0
454670,0,0,0
454673,0,0,0
454675,0,0,0
454678,0,0,0
454680,0,0,0
454683,0,0,0
454685,0,0,0
454688,0,0,0
454690,0,0,0
454693,0,0,0
454695,0,0,0
454699,0,0,0
454701,0,0,0
454704,0,0,0
454706,0,0,0
454709,0,0,0
454711,0,0,0
454714,0,0,0
454716,0,0,0
454719,0,0,0
454721,0,0,0
454724,0,0,0
454726,0,0,0
454729,0,0,0
454731,0,0,0
454734,0,0,0
454736,0,0,0
454739,0,0,0
454742,0,0,0
454745,0,0,0
454747,0,0,0
454750,0,0,0
454752,0,0,0
454754,0,0,0
454757,0,0,0
454759,0,0,0
454762,0,0,0
454764,0,0,0
454767,0,0,0
454769,0,0,0
454772,0,0,0
454774,0,0,0
454777,0,0,0
454779,0,0,0
454782,0,0,0
454785,0,0,0
454788,0,0,0
454790,0,0,0
454793,0,0,0
454795,0,0,0
454798,0,0,0
454800,0,0,0
454803,0,0,0
454805,0,0,0
454808,0,0,0
454810,0,0,0
454813,0,0,0
454815,0,0,0
454818,0,0,0
454820,0,0,0
454823,0,0,0
454825,0,0,0
454829,0,0,0
454831,0,0,0
454834,0,0,0
454836,0,0,0
454839,0,0,0
454841,0,0,0
454844,0,0,0
454846,0,0,0
454849,0,0,0
454851,0,0,0
454854,0,0,0
454856,0,0,0
454859,0,0,0
454861,0,0,0
454864,0,0,0
454866,0,0,0
454870,0,0,0
454872,0,0,0
454875,0.1027921,0.1046783,0.0656106
454877,0.1027921,0.1046783,0.0656106
454880,0.1887116,0.1897456,0.05595291
454882,0.1887116,0.1897456,0.05595291
454884,0.3109043,0.3134116,0.04423466
454887,0.3544303,0.3566318,0.04423466
454889,0.3544303,0.3566318,0.04423466
454892,0.3891652,0.3921704,0.03956468
454894,0.4383485,0.4414621,0.03426402
454897,0.4383485,0.4414621,0.03426402
454899,0.4558544,0.4592754,0.03426402
454902,0.4558544,0.4592754,0.03426402
454904,0.4706381,0.4739525,0.03426402
454907,0.4821389,0.4857778,0.03426402
454909,0.4821389,0.4857778,0.03426402
454913,0.4996771,0.5031891,0.02797646
454915,0.5059038,0.509757,0.02797646
454918,0.5059038,0.509757,0.02797646
454920,0.509757,0.5135812,0.02797646
454923,0.509757,0.5135812,0.02797646
454925,0.5151029,0.5185105,0.02797646
454928,0.5192646,0.5226451,0.03426402
454930,0.5192646,0.5226451,0.03426402
454933,0.5222706,0.5260038,0.02797646
454935,0.5274898,0.5311863,0.02797646
454938,0.5274898,0.5311863,0.02797646
454940,0.5297108,0.533025,0.02797646
454943,0.5297108,0.533025,0.02797646
454945,0.5311863,0.5348573,0.02797646
454948,0.5344914,0.5377761,0.02797646
454950,0.5344914,0.5377761,0.02797646
454953,0.5355885,0.5392296,0.02797646
454956,0.5355885,0.5392296,0.02797646
454959,0.5363187,0.5399548,0.02797646
454961,0.5381398,0.5414024,0.01978234
454964,0.5381398,0.5414024,0.01978234
454966,0.5392296,0.5424856,0.02797646
454969,0.5399548,0.5432066,0.01978234
454971,0.5399548,0.5432066,0.01978234
454974,0.5414024,0.5446455,0.01978234
454976,0.5414024,0.5446455,0.01978234
454979,0.5432066,0.5464389,0.01978234
454981,0.5432066,0.5464389,0.01978234
454984,0.5432066,0.5464389,0.01978234
454986,0.5421248,0.5446455,0.01978234
454989,0.5406791,0.5432066,0.01978234
454991,0.5406791,0.5432066,0.01978234
454994,0.5377761,0.5410409,0.01978234
454996,0.5377761,0.5410409,0.01978234
455000,0.5366834,0.5395923,0.01978234
455002,0.5355885,0.5385033,0.01978234
455005,0.5355885,0.5385033,0.01978234
455007,0.5366834,0.5399548,0
455010,0.5374122,0.5403171,0.01978234
455012,0.5374122,0.5403171,0.01978234
455014,0.5363187,0.5388666,0
455017,0.5363187,0.5388666,0
455019,0.5359538,0.5388666,0.01978234
455022,0.5359538,0.5388666,0.01978234
455024,0.5359538,0.5388666,0.01978234
455027,0.5363187,0.5388666,0
455029,0.5344914,0.5366834,0
455032,0.5344914,0.5366834,0
455034,0.5341251,0.5366834,0
455037,0.5341251,0.5366834,0
455040,0.5297108,0.5326577,0.01978234
455043,0.5282311,0.5308178,0.01978234
455045,0.5282311,0.5308178,0.01978234
455048,0.5263757,0.5297108,0.01978234
455050,0.5252593,0.5278606,0.01978234
455053,0.5252593,0.5278606,0.01978234
455055,0.5222706,0.5256317,0.01978234
455058,0.5222706,0.5256317,0.01978234
455060,0.5215207,0.5248867,0.01978234
455063,0.5192646,0.5222706,0.02797646
455065,0.5192646,0.5222706,0.02797646
455068,0.5162413,0.5200178,0.02797646
455070,0.5143426,0.518133,0.02797646
455073,0.5143426,0.518133,0.02797646
455075,0.5120549,0.5151029,0.02797646
455078,0.5120549,0.5151029,0.02797646
455080,0.5120549,0.5151029,0.02797646
455084,0.5116726,0.5147229,0.03426402
455086,0.5116726,0.5147229,0.03426402
455089,0.5120549,0.5158621,0.02797646
455091,0.5120549,0.5158621,0.02797646
455094,0.5124369,0.5162413,0.02797646
455096,0.5132,0.5169988,0.02797646
455099,0.5132,0.5169988,0.02797646
455101,0.5147229,0.5185105,0.03426402
455104,0.5177552,0.5207698,0.03426402
455106,0.5177552,0.5207698,0.03426402
455109,0.5192646,0.5230194,0.03426402
455111,0.5192646,0.5230194,0.03426402
455114,0.5215207,0.5256317,0.03426402
455116,0.5226451,0.5267473,0.02797646
455119,0.5226451,0.5267473,0.02797646
455121,0.5271187,0.530449,0.02797646
455124,0.5286014,0.533025,0.03426402
455127,0.5286014,0.533025,0.03426402
455130,0.5322903,0.5359538,0.02797646
455132,0.5322903,0.5359538,0.02797646
455135,0.5374122,0.5414024,0.02797646
455137,0.5410409,0.5446455,0.03426402
455140,0.5410409,0.5446455,0.03426402
455142,0.5460806,0.5492961,0.02797646
455144,0.5485832,0.5524929,0.01978234
455147,0.5485832,0.5524929,0.01978234
455149,0.5507192,0.5546138,0.02797646
455152,0.5507192,0.5546138,0.02797646
455154,0.5567266,0.5605795,0.01978234
455157,0.5605795,0.5640592,0.02797646
455159,0.5605795,0.5640592,0.02797646
455162,0.5657911,0.569239,0.01978234
455164,0.5678623,0.5702693,0.01978234
455168,0.5678623,0.5702693,0.01978234
455170,0.5709552,0.5743721,0.02797646
455173,0.5709552,0.5743721,0.02797646
455175,0.5726661,0.5753932,0.01978234
455178,0.5740312,0.577091,0.02797646
455180,0.5740312,0.577091,0.02797646
455183,0.5747126,0.577091,0.01978234
455185,0.5723243,0.5747126,0.02797646
455188,0.5723243,0.5747126,0.02797646
455190,0.569239,0.5716401,0.02797646
455193,0.569239,0.5716401,0.02797646
455195,0.5678623,0.5702693,0.01978234
455198,0.5637122,0.5664824,0.01978234
455200,0.5637122,0.5664824,0.01978234
455203,0.5616257,0.564406,0.01978234
455205,0.5584812,0.5616257,0.01978234
455208,0.5584812,0.5616257,0.01978234
455211,0.5581307,0.5609285,0.02797646
455214,0.5581307,0.5609285,0.02797646
455216,0.5574291,0.5598809,0.02797646
455219,0.5567266,0.5598809,0.01978234
455221,0.5567266,0.5598809,0.01978234
455224,0.556375,0.5595313,0.01978234
455226,0.556375,0.5595313,0.01978234
455229,0.556375,0.5591815,0
455231,0.5567266,0.5588315,0.01978234
455234,0.5567266,0.5588315,0.01978234
455236,0.5570779,0.5591815,0.01978234
455239,0.5574291,0.5602303,0.01978234
455241,0.5574291,0.5602303,0.01978234
455244,0.55778,0.5605795,0.01978234
455246,0.55778,0.5605795,0.01978234
455249,0.55778,0.5605795,0.02797646
455251,0.55778,0.5605795,0.01978234
455255,0.55778,0.5605795,0.01978234
455257,0.55778,0.5602303,0.01978234
455260,0.55778,0.5605795,0.01978234
455262,0.55778,0.5605795,0.01978234
455265,0.5584812,0.5609285,0.02797646
455267,0.5584812,0.5609285,0.02797646
455270,0.5588315,0.5616257,0.01978234
455272,0.5581307,0.5612772,0.01978234
455274,0.5581307,0.5612772,0.01978234
455277,0.5581307,0.5609285,0
455279,0.5602303,0.5630175,0.01978234
455282,0.5602303,0.5630175,0.01978234
455284,0.5609285,0.5637122,0.02797646
455287,0.5609285,0.5637122,0.02797646
455289,0.5630175,0.5664824,0.01978234
455292,0.5637122,0.5664824,0.01978234
455294,0.5637122,0.5664824,0.01978234
455298,0.5640592,0.5675176,0
455300,0.564406,0.5671728,0.01978234
455303,0.564406,0.5671728,0.01978234
455305,0.5637122,0.5668277,0.02797646
455308,0.5637122,0.5668277,0.02797646
455310,0.5630175,0.5654452,0.02797646
455313,0.5616257,0.5654452,0.02797646
455315,0.5616257,0.5654452,0.02797646
455318,0.5616257,0.5650989,0.02797646
455320,0.5623221,0.5661368,0.02797646
455323,0.5623221,0.5661368,0.02797646
455325,0.5630175,0.5661368,0.02797646
455328,0.5630175,0.5661368,0.02797646
455330,0.5619739,0.5657911,0.02797646
455333,0.5619739,0.5654452,0.01978234
455335,0.5619739,0.5654452,0.01978234
455339,0.5595313,0.5630175,0.03426402
455341,0.5584812,0.5619739,0.01978234
455344,0.5584812,0.5619739,0.01978234
455346,0.5574291,0.5605795,0.02797646
455349,0.5574291,0.5605795,0.02797646
455351,0.5542608,0.5574291,0.01978234
455354,0.5535544,0.5567266,0.02797646
455356,0.5535544,0.5567266,0.02797646
455359,0.5535544,0.5567266,0.02797646
455361,0.5535544,0.5567266,0.02797646
455364,0.5532007,0.556375,0.01978234
455366,0.5532007,0.5560232,0.02797646
455369,0.5532007,0.5560232,0.02797646
455371,0.5532007,0.556375,0.02797646
455374,0.5532007,0.5556712,0.01978234
455376,0.5532007,0.5556712,0.01978234
455379,0.5521386,0.5556712,0.01978234
455382,0.5521386,0.5556712,0.01978234
455385,0.5517841,0.5546138,0.01978234
455387,0.5546138,0.55778,0.01978234
455390,0.5546138,0.55778,0.01978234
455392,0.5570779,0.5598809,0.01978234
455395,0.563365,0.5657911,0.01978234
455397,0.563365,0.5657911,0.01978234
455400,0.5675176,0.5695826,0.01978234
455402,0.5675176,0.5695826,0.01978234
455404,0.5733491,0.5757331,0.01978234
455407,0.57743,0.5801346,0
455409,0.57743,0.5801346,0
455412,0.5861744,0.5888388,0
455414,0.5901666,0.5921526,0.01978234
455417,0.5901666,0.5921526,0.01978234
455419,0.5931431,0.5957764,0.01978234
455422,0.5931431,0.5957764,0.01978234
455425,0.6010084,0.6032831,0
455428,0.6055493,0.6074851,0.01978234
455430,0.6055493,0.6074851,0.01978234
455433,0.608772,0.6103771,0
455435,0.6113381,0.6129363,0
455438,0.6113381,0.6129363,0
455440,0.615167,0.6170725,0
455443,0.615167,0.6170725,0
455445,0.6167554,0.6183397,0
455448,0.618656,0.6202354,0
455450,0.618656,0.6202354,0
455453,0.6202354,0.6218109,0
455455,0.6214961,0.6227542,0
455458,0.6214961,0.6227542,0
455460,0.6224399,0.6236961,0
455463,0.6224399,0.6236961,0
455465,0.6221254,0.6233823,0
455469,0.6218109,0.6233823,0
455471,0.6218109,0.6233823,0
455474,0.6221254,0.6224399,0.01978234
455476,0.6167554,0.6180231,0
455479,0.6167554,0.6180231,0
455481,0.6135744,0.614212,0
455484,0.6135744,0.614212,0
455486,0.6103771,0.6113381,0
455489,0.6049027,0.6055493,0
455491,0.6049027,0.6055493,0
455494,0.5957764,0.5967609,0
455496,0.5957764,0.5967609,0
455499,0.591822,0.5928131,0
455501,0.5831623,0.5848376,0
455504,0.5831623,0.5848376,0
455506,0.5794597,0.5797972,0
455510,0.5757331,0.577091,0
455512,0.5757331,0.577091,0
455515,0.5699261,0.5712977,0
455517,0.5699261,0.5712977,0
455520,0.5609285,0.5626699,0
455522,0.5581307,0.5588315,0.01978234
455525,0.5581307,0.5588315,0.01978234
455527,0.5535544,0.555319,0.01978234
455530,0.5521386,0.5542608,0
455532,0.5521386,0.5542608,0
455534,0.5514293,0.5532007,0.01978234
455537,0.5514293,0.5532007,0.01978234
455539,0.5489398,0.5503638,0
455542,0.5478694,0.5492961,0.01978234
455544,0.5478694,0.5492961,0.01978234
455547,0.5453635,0.5478694,0
455549,0.5410409,0.5435666,0.01978234
455553,0.5410409,0.5435666,0.01978234
455555,0.5392296,0.5410409,0
455558,0.5392296,0.5410409,0
455560,0.5374122,0.5395923,0.01978234
455563,0.533025,0.5348573,0
455565,0.533025,0.5348573,0
455568,0.5322903,0.5341251,0.01978234
455570,0.53008,0.5319225,0.01978234
455573,0.53008,0.5319225,0.01978234
455575,0.5271187,0.5289715,0.01978234
455578,0.5271187,0.5289715,0.01978234
455580,0.5252593,0.5271187,0.01978234
455583,0.5237671,0.5256317,0.01978234
455585,0.5237671,0.5256317,0.01978234
455588,0.5233933,0.5245137,0.01978234
455590,0.5226451,0.5245137,0.01978234
455593,0.5226451,0.5245137,0.01978234
455596,0.5252593,0.5263757,0.01978234
455599,0.5252593,0.5263757,0.01978234
455601,0.5278606,0.5297108,0.01978234
455604,0.5293413,0.5308178,0
455606,0.5293413,0.5308178,0
455609,0.5308178,0.5319225,0.01978234
455611,0.5319225,0.533025,0
455614,0.5319225,0.533025,0
455616,0.5322903,0.533392,0.01978234
455619,0.5322903,0.533392,0.01978234
455621,0.5348573,0.5363187,0
455624,0.5388666,0.5399548,0.01978234
455626,0.5388666,0.5399548,0.01978234
455629,0.5414024,0.5424856,0.01978234
455631,0.5432066,0.5439265,0
455634,0.5446455,0.5453635,0.01978234
455636,0.5475121,0.5489398,0
455640,0.5475121,0.5489398,0
455642,0.5496522,0.5507192,0
455645,0.5532007,0.5542608,0
455647,0.5532007,0.5542608,0
455650,0.5549665,0.555319,0
455652,0.5549665,0.555319,0
455655,0.5574291,0.5581307,0
455657,0.5609285,0.5616257,0
455660,0.5609285,0.5616257,0
455662,0.5612772,0.5619739,0
455664,0.5623221,0.5623221,0.01978234
455667,0.5623221,0.5623221,0.01978234
455669,0.5630175,0.5630175,0
455672,0.5630175,0.5630175,0
455674,0.563365,0.563365,0.01978234
455677,0.5637122,0.5637122,0
455680,0.5637122,0.5637122,0
455683,0.564406,0.564406,0
455685,0.5640592,0.564406,0
455688,0.5640592,0.564406,0
455690,0.5640592,0.5640592,0
455693,0.5640592,0.5640592,0
455695,0.5640592,0.5640592,0
455698,0.5640592,0.5640592,0
455700,0.5640592,0.5640592,0
455703,0.564406,0.5647526,0
455705,0.5647526,0.5650989,0
455708,0.5647526,0.5650989,0
455710,0.5640592,0.564406,0
455713,0.5640592,0.564406,0
455715,0.563365,0.5640592,0
455718,0.5616257,0.5619739,0
455720,0.5616257,0.5619739,0
455724,0.5595313,0.5598809,0
455726,0.5584812,0.5588315,0
455729,0.5584812,0.5588315,0
455731,0.556375,0.5570779,0
455734,0.556375,0.5570779,0
455736,0.5524929,0.5535544,0
455739,0.5510744,0.5517841,0
455741,0.5510744,0.5517841,0
455744,0.5492961,0.5496522,0
455746,0.5446455,0.5453635,0.01978234
455749,0.5446455,0.5453635,0.01978234
455751,0.5428462,0.5432066,0
455754,0.5428462,0.5432066,0
455756,0.5414024,0.5421248,0
455759,0.5392296,0.5406791,0
455761,0.5392296,0.5406791,0
455764,0.5377761,0.5388666,0
455767,0.5377761,0.5381398,0
455770,0.5377761,0.5381398,0
455772,0.5363187,0.5377761,0
455775,0.5363187,0.5377761,0
455777,0.5363187,0.5374122,0
455780,0.533392,0.5341251,0
455782,0.533392,0.5341251,0
455785,0.5315546,0.5322903,0
455787,0.5315546,0.5322903,0
455790,0.5293413,0.5311863,0
455792,0.5267473,0.5282311,0.01978234
455794,0.5267473,0.5282311,0.01978234
455797,0.5252593,0.5267473,0.01978234
455799,0.5241405,0.5260038,0
455802,0.5241405,0.5260038,0
455804,0.5226451,0.5245137,0.02797646
455808,0.5226451,0.5245137,0.02797646
455810,0.5226451,0.5245137,0.02797646
455813,0.5226451,0.5245137,0.02797646
455815,0.5226451,0.5245137,0.02797646
455818,0.5226451,0.5245137,0.02797646
455820,0.5226451,0.5245137,0.02797646
455823,0.5226451,0.5245137,0.02797646
455825,0.5226451,0.5245137,0.02797646
455828,0.5226451,0.5245137,0.02797646
455830,0.5203939,0.5226451,0.01978234
455833,0.5203939,0.5226451,0.01978234
455835,0.5203939,0.5226451,0.01978234
455838,0.5203939,0.5226451,0.01978234
455840,0.5203939,0.5226451,0.01978234
455843,0.5203939,0.5226451,0.01978234
455845,0.5177552,0.5203939,0.02797646
455848,0.5177552,0.5203939,0.02797646
455851,0.5177552,0.5203939,0.02797646
455854,0.5417637,0.5435666,0
455856,0.5417637,0.5435666,0
455859,0.5626699,0.5630175,0
455861,0.5898349,0.5891711,0
455864,0.5898349,0.5891711,0
455866,0.6342734,0.6308707,-0.02797646
455869,0.6342734,0.6308707,-0.02797646
455871,0.6342734,0.6308707,-0.02797646
455874,0.6404136,0.6361217,-0.02797646
455876,0.6404136,0.6361217,-0.02797646
455879,0.6667597,0.6617518,-0.04845664
455881,0.6844273,0.6783969,-0.05595291
455884,0.6844273,0.6783969,-0.05595291
455886,0.6872803,0.6815624,-0.05233916
455889,0.6872803,0.6815624,-0.05233916
455891,0.6912548,0.6858553,-0.05233916
455895,0.7058211,0.699975,-0.05233916
455897,0.7058211,0.699975,-0.05233916
455900,0.7308815,0.7244276,-0.05934703
455902,0.7308815,0.7244276,-0.05934703
455905,0.7308815,0.7244276,-0.05934703
455907,0.7569224,0.749388,-0.0656106
455910,0.7569224,0.749388,-0.0656106
455912,0.7548515,0.745461,-0.07912937
455915,0.7548515,0.745461,-0.07912937
455917,0.7548515,0.745461,-0.07912937
455920,0.7491269,0.7359507,-0.09691329
455922,0.7491269,0.7359507,-0.09691329
455924,0.7457234,0.7308815,-0.1046783
455927,0.7396637,0.7230757,-0.1119058
455929,0.7396637,0.7230757,-0.1119058
455932,0.7359507,0.717643,-0.1186941
455934,0.7324861,0.7129927,-0.1251145
455938,0.7324861,0.7129927,-0.1251145
455940,0.7306137,0.709416,-0.1312212
455943,0.7306137,0.709416,-0.1312212
455945,0.7303458,0.7080355,-0.1356209
455948,0.7268545,0.7035998,-0.1398823
455950,0.7268545,0.7035998,-0.1398823
455953,0.7252374,0.7008132,-0.1426525
455955,0.7233464,0.6977351,-0.14537
455958,0.7233464,0.6977351,-0.14537
455960,0.7228051,0.6963314,-0.1480375
455963,0.7228051,0.6963314,-0.1480375
455965,0.719821,0.6926687,-0.1493534
455968,0.7184606,0.6909717,-0.1506579
455970,0.7184606,0.6909717,-0.1506579
455973,0.7281993,0.7005339,-0.1545051
455975,0.7393991,0.711894,-0.1570175
455979,0.7393991,0.711894,-0.1570175
455981,0.749388,0.7217214,-0.1570175
455984,0.749388,0.7217214,-0.1570175
455986,0.7597608,0.7322189,-0.1594904
455989,0.7692311,0.741777,-0.1607126
455991,0.7692311,0.741777,-0.1607126
455994,0.776825,0.749388,-0.1619255
455996,0.776825,0.749388,-0.1619255
455999,0.776825,0.749388,-0.1619255
456001,0.7835966,0.7561465,-0.1619255
456004,0.7835966,0.7561465,-0.1619255
456006,0.7937689,0.7661725,-0.1643245
456009,0.7962303,0.7687222,-0.1643245
456011,0.7962303,0.7687222,-0.1643245
456014,0.798684,0.7717707,-0.1643245
456016,0.8013745,0.7740492,-0.165511
456019,0.8013745,0.7740492,-0.165511
456022,0.8052719,0.7785863,-0.1631294
456025,0.8052719,0.7785863,-0.1631294
456027,0.8081825,0.7818466,-0.1643245
456030,0.811324,0.7850935,-0.1631294
456032,0.811324,0.7850935,-0.1631294
456035,0.8134917,0.7878303,-0.1619255
456037,0.8170919,0.7910526,-0.1631294
456040,0.8170919,0.7910526,-0.1631294
456042,0.8228193,0.7967216,-0.166689
456045,0.8228193,0.7967216,-0.166689
456047,0.8218675,0.7962303,-0.1643245
456050,0.8216294,0.7962303,-0.165511
456052,0.8216294,0.7962303,-0.165511
456055,0.8225815,0.7969672,-0.165511
456057,0.8225815,0.7969672,-0.165511
456059,0.8247196,0.7994187,-0.1643245
456062,0.8249568,0.7994187,-0.1643245
456065,0.8249568,0.7994187,-0.1643245
456068,0.825194,0.7999081,-0.1643245
456070,0.8247196,0.7996635,-0.1631294
456073,0.8247196,0.7996635,-0.1631294
456075,0.8247196,0.7996635,-0.1619255
456078,0.8247196,0.7996635,-0.1619255
456080,0.8254311,0.8003972,-0.1631294
456083,0.8270888,0.8023506,-0.1631294
456085,0.8270888,0.8023506,-0.1631294
456088,0.8280347,0.8028382,-0.1631294
456090,0.8287433,0.8033255,-0.1631294
456093,0.8287433,0.8033255,-0.1631294
456095,0.8303944,0.8047857,-0.1643245
456098,0.8303944,0.8047857,-0.1643245
456100,0.8313365,0.8055148,-0.1631294
456103,0.8327476,0.8067285,-0.1643245
456105,0.8327476,0.8067285,-0.1643245
456109,0.8341562,0.8081825,-0.165511
456111,0.847191,0.8223435,-0.1643245
456114,0.847191,0.8223435,-0.1643245
456116,0.8570652,0.8329825,-0.1607126
456119,0.8570652,0.8329825,-0.1607126
456121,0.8713301,0.848345,-0.1582588
456124,0.8831524,0.8609378,-0.1557664
456126,0.8831524,0.8609378,-0.1557664
456129,0.8954742,0.8742447,-0.1532334
456131,0.9054703,0.8849231,-0.1519511
456134,0.9054703,0.8849231,-0.1519511
456136,0.9145018,0.8945997,-0.1493534
456139,0.9145018,0.8945997,-0.1493534
456141,0.9219604,0.9024397,-0.1480375
456144,0.9280951,0.9091367,-0.1467098
456146,0.9280951,0.9091367,-0.1467098
456150,0.9354453,0.9168525,-0.1467098
456152,0.9362817,0.9174925,-0.14537
456155,0.9362817,0.9174925,-0.14537
456157,0.9371173,0.9183452,-0.1440177
456160,0.9371173,0.9183452,-0.1440177
456162,0.9245038,0.9052542,-0.1467098
456165,0.9142877,0.8943809,-0.1493534
456167,0.9142877,0.8943809,-0.1493534
456170,0.9013549,0.8804895,-0.1519511
456172,0.8908735,0.8693066,-0.1557664
456175,0.8908735,0.8693066,-0.1557664
456177,0.8802673,0.8577499,-0.1557664
456180,0.8802673,0.8577499,-0.1557664
456182,0.8643403,0.8409316,-0.1582588
456185,0.857978,0.8341562,-0.1607126
456187,0.857978,0.8341562,-0.1607126
456189,0.8531751,0.828271,-0.1619255
456193,0.8531751,0.828271,-0.1619255
456195,0.8488063,0.82377,-0.1643245
456198,0.8379012,0.8118062,-0.165511
456200,0.8379012,0.8118062,-0.165511
456203,0.8346253,0.8081825,-0.166689
456205,0.8346253,0.8081825,-0.166689
456208,0.8346253,0.8081825,-0.166689
456210,0.8287433,0.8013745,-0.1690205
456213,0.8287433,0.8013745,-0.1690205
456215,0.826142,0.798439,-0.1701742
456218,0.8240075,0.7957386,-0.1713202
456220,0.8240075,0.7957386,-0.1713202
456223,0.8225815,0.7942618,-0.1713202
456225,0.8194832,0.7905577,-0.1713202
456228,0.8194832,0.7905577,-0.1713202
456230,0.8180492,0.7888232,-0.1724585
456233,0.8180492,0.7888232,-0.1724585
456236,0.8166127,0.7875819,-0.1724585
456239,0.8154138,0.7863387,-0.1724585
456241,0.8154138,0.7863387,-0.1724585
456244,0.7893192,0.760533,-0.166689
456246,0.7687222,0.7399282,-0.1631294
456249,0.7687222,0.7399282,-0.1631294
456251,0.7509531,0.7219925,-0.1594904
456254,0.7509531,0.7219925,-0.1594904
456256,0.7322189,0.7033216,-0.1557664
456259,0.7244276,0.6957693,-0.1545051
456261,0.7244276,0.6957693,-0.1545051
456264,0.733287,0.7063754,-0.1467098
456266,0.7449358,0.7214502,-0.1370561
456269,0.7449358,0.7214502,-0.1370561
456271,0.7535542,0.7314168,-0.132704
456274,0.7535542,0.7314168,-0.132704
456276,0.7651502,0.745461,-0.1235407
456280,0.770502,0.751474,-0.1219466
456282,0.770502,0.751474,-0.1219466
456285,0.7778319,0.7597608,-0.1203313
456287,0.7815963,0.7638705,-0.1186941
456290,0.7815963,0.7638705,-0.1186941
456292,0.7875819,0.7699938,-0.1170339
456295,0.7875819,0.7699938,-0.1170339
456297,0.7893192,0.7727842,-0.1153499
456300,0.7922885,0.7758168,-0.1136409
456302,0.7922885,0.7758168,-0.1136409
456305,0.7607903,0.7470343,-0.09691329
456307,0.7343537,0.7228051,-0.08392937
456310,0.7343537,0.7228051,-0.08392937
456312,0.6693957,0.6626383,-0.05233916
456315,0.6693957,0.6626383,-0.05233916
456317,0.6434618,0.6385778,-0.03426402
456320,0.6167554,0.6132555,-0.01978234
456323,0.6167554,0.6132555,-0.01978234
456325,0.5944612,0.5921526,-0.01978234
456328,0.5944612,0.5921526,-0.01978234
456330,0.575053,0.5733491,0
456333,0.5464389,0.5460806,0
456335,0.5464389,0.5460806,0
456338,0.5392296,0.5388666,0
456340,0.5245137,0.5252593,0
456343,0.5245137,0.5252593,0
456345,0.5211454,0.5218958,0
456348,0.5211454,0.5218958,0
456350,0.5177552,0.518133,0
456353,0.5185105,0.5192646,0.01978234
456355,0.5185105,0.5192646,0.01978234
456358,0.5166202,0.5177552,0.01978234
456360,0.5185105,0.5196414,0.01978234
456364,0.5185105,0.5196414,0.01978234
456366,0.5188877,0.5192646,0.01978234
456369,0.5188877,0.5192646,0.01978234
456371,0.5200178,0.5203939,0
456374,0.5196414,0.5200178,0.01978234
456376,0.5196414,0.5200178,0.01978234
456379,0.5211454,0.5215207,0
456381,0.5207698,0.5218958,0.01978234
456384,0.5207698,0.5218958,0.01978234
456386,0.5230194,0.5241405,0
456389,0.5230194,0.5241405,0
456391,0.5241405,0.5248867,0
456394,0.5248867,0.5252593,0
456396,0.5248867,0.5252593,0
456399,0.5241405,0.5248867,0.01978234
456401,0.5218958,0.5226451,0.01978234
456404,0.5218958,0.5226451,0.01978234
456407,0.5200178,0.5207698,0
456410,0.5200178,0.5207698,0
456412,0.5173771,0.518133,0
456415,0.5158621,0.5166202,0
456417,0.5158621,0.5166202,0
456420,0.5147229,0.5147229,0
456422,0.5143426,0.5147229,0
456425,0.5143426,0.5147229,0
456427,0.5135812,0.5143426,0
456430,0.5124369,0.5132,0
456432,0.5116726,0.5116726,0.01978234
456435,0.5101407,0.5105241,0
456437,0.5101407,0.5105241,0
456440,0.5070629,0.5082192,0
456442,0.5062904,0.5078341,0
456445,0.5062904,0.5078341,0
456448,0.5047422,0.5055169,0
456450,0.5047422,0.5055169,0
456453,0.5066768,0.5074486,0.01978234
456455,0.508604,0.509757,0
456458,0.508604,0.509757,0
456460,0.5124369,0.513962,0
456463,0.5124369,0.513962,0
456465,0.5158621,0.5169988,0.01978234
456468,0.5237671,0.5248867,0.01978234
456470,0.5237671,0.5248867,0.01978234
456473,0.5274898,0.5286014,0
456475,0.5363187,0.5370479,0.01978234
456478,0.5363187,0.5370479,0.01978234
456480,0.5395923,0.5406791,0
456483,0.5395923,0.5406791,0
456485,0.5492961,0.5500081,0
456488,0.5542608,0.555319,0
456491,0.5542608,0.555319,0
456494,0.5581307,0.5584812,0
456496,0.5668277,0.5682068,0
456499,0.5668277,0.5682068,0
456501,0.5747126,0.5760729,0
456504,0.5747126,0.5760729,0
456506,0.5781073,0.5791218,0
456509,0.5804718,0.5814822,0
456511,0.5804718,0.5814822,0
456514,0.587175,0.5888388,0
456516,0.589503,0.5908293,0
456519,0.589503,0.5908293,0
456521,0.590498,0.591822,0
456524,0.590498,0.591822,0
456526,0.5908293,0.5924829,0
456529,0.5901666,0.591822,0.01978234
456531,0.5901666,0.591822,0.01978234
456535,0.5888388,0.5898349,0
456537,0.5878411,0.5888388,0.01978234
456540,0.5878411,0.5888388,0.01978234
456542,0.5865081,0.5875081,0
456545,0.5865081,0.5875081,0
456547,0.5851721,0.5861744,0
456550,0.5828267,0.5841681,0
456552,0.5828267,0.5841681,0
456555,0.5811456,0.5821548,0
456557,0.5794597,0.5808088,0.01978234
456560,0.5794597,0.5808088,0.01978234
456562,0.575053,0.5764125,0
456565,0.575053,0.5764125,0
456567,0.5733491,0.5740312,0
456570,0.5661368,0.5675176,0
456572,0.5661368,0.5675176,0
456576,0.5637122,0.564406,0
456578,0.555319,0.5567266,0
456580,0.555319,0.5567266,0
456583,0.5524929,0.5535544,0.01978234
456585,0.5524929,0.5535544,0.01978234
456588,0.5482264,0.5500081,0.01978234
456590,0.5467969,0.5492961,0
456593,0.5467969,0.5492961,0
456595,0.5450047,0.5467969,0.02797646
456598,0.5450047,0.5467969,0.02797646
456600,0.5435666,0.5460806,0.01978234
456603,0.5410409,0.5435666,0.01978234
456605,0.5410409,0.5435666,0.01978234
456608,0.5399548,0.5424856,0.01978234
456610,0.5388666,0.5414024,0.02797646
456613,0.5388666,0.5414024,0.02797646
456615,0.5385033,0.5406791,0.01978234
456619,0.5385033,0.5406791,0.01978234
456621,0.5355885,0.5385033,0.02797646
456624,0.5348573,0.5370479,0.02797646
456626,0.5348573,0.5370479,0.02797646
456629,0.5326577,0.5348573,0.02797646
456631,0.5315546,0.5341251,0.02797646
456634,0.5315546,0.5341251,0.02797646
456636,0.530449,0.533392,0.02797646
456639,0.530449,0.533392,0.02797646
456641,0.5286014,0.5311863,0.02797646
456644,0.5271187,0.5297108,0.02797646
456646,0.5271187,0.5297108,0.02797646
456649,0.5263757,0.5289715,0.01978234
456651,0.5267473,0.5293413,0.02797646
456654,0.5267473,0.5293413,0.02797646
456656,0.5271187,0.530449,0.02797646
456659,0.5271187,0.530449,0.02797646
456662,0.5274898,0.530449,0.01978234
456665,0.5278606,0.530449,0.02797646
456667,0.5278606,0.530449,0.02797646
456670,0.5293413,0.5319225,0.01978234
456672,0.5297108,0.5322903,0.02797646
456675,0.5297108,0.5322903,0.02797646
456677,0.53008,0.5326577,0.02797646
456680,0.53008,0.5326577,0.02797646
456682,0.5297108,0.5322903,0.02797646
456685,0.5293413,0.5319225,0.02797646
456687,0.5293413,0.5319225,0.02797646
456690,0.5308178,0.533392,0.02797646
456692,0.5311863,0.5337587,0.01978234
456695,0.5311863,0.5337587,0.01978234
456697,0.5322903,0.5352231,0.02797646
456700,0.5322903,0.5352231,0.02797646
456702,0.533392,0.5355885,0.03426402
456706,0.5355885,0.5385033,0.01978234
456708,0.5355885,0.5385033,0.01978234
456710,0.5374122,0.5392296,0.02797646
456713,0.5388666,0.5417637,0.01978234
456715,0.5388666,0.5417637,0.01978234
456718,0.5403171,0.5424856,0.01978234
456720,0.5403171,0.5424856,0.01978234
456723,0.5428462,0.5450047,0.02797646
456725,0.5439265,0.5464389,0.01978234
456728,0.5439265,0.5464389,0.01978234
456730,0.5471546,0.5496522,0.02797646
456733,0.5471546,0.5496522,0.02797646
456735,0.5482264,0.5507192,0.01978234
456738,0.5539077,0.5560232,0.01978234
456740,0.5539077,0.5560232,0.01978234
456743,0.556375,0.5584812,0.02797646
456745,0.5602303,0.5626699,0.02797646
456749,0.5602303,0.5626699,0.02797646
456751,0.5616257,0.563365,0.02797646
456754,0.5616257,0.563365,0.02797646
456756,0.5637122,0.5661368,0
456759,0.5678623,0.5699261,0.01978234
456761,0.5678623,0.5699261,0.01978234
456764,0.569239,0.5712977,0.01978234
456766,0.5716401,0.5736903,0.01978234
456769,0.5716401,0.5736903,0.01978234
456771,0.5730078,0.5753932,0.01978234
456774,0.5730078,0.5753932,0.01978234
456776,0.5747126,0.5767518,0
456779,0.5760729,0.57743,0.01978234
456781,0.5760729,0.57743,0.01978234
456784,0.5757331,0.5781073,0.01978234
456786,0.5753932,0.5777687,0.01978234
456790,0.5753932,0.5777687,0.01978234
456792,0.5726661,0.5747126,0.02797646
456795,0.5726661,0.5747126,0.02797646
456797,0.5709552,0.5730078,0.01978234
456800,0.5695826,0.5716401,0.01978234
456802,0.5695826,0.5716401,0.01978234
456805,0.5647526,0.5668277,0.01978234
456807,0.5626699,0.5650989,0.01978234
456810,0.5626699,0.5650989,0.01978234
456812,0.5567266,0.5595313,0.02797646
456815,0.5567266,0.5595313,0.02797646
456817,0.5546138,0.5570779,0.03426402
456820,0.5467969,0.5500081,0.02797646
456822,0.5467969,0.5500081,0.02797646
456825,0.5442861,0.5478694,0.03426402
456827,0.5388666,0.5424856,0.03426402
456830,0.5388666,0.5424856,0.03426402
456833,0.5315546,0.5344914,0.03956468
456836,0.5315546,0.5344914,0.03956468
456838,0.5282311,0.5311863,0.03426402
456840,0.5256317,0.5278606,0.02797646
456843,0.5256317,0.5278606,0.02797646
456845,0.5256317,0.5278606,0.02797646
456848,0.5256317,0.5278606,0.02797646
456850,0.5256317,0.5278606,0.02797646
456853,0.5173771,0.5203939,0.04423466
456855,0.5173771,0.5203939,0.04423466
456858,0.5051297,0.5089886,0.05595291
456860,0.5132,0.5177552,0.06255726
456863,0.5132,0.5177552,0.06255726
456865,0.5267473,0.5315546,0.08156469
456868,0.5267473,0.5315546,0.08156469
456870,0.5366834,0.5417637,0.08846933
456873,0.5528469,0.55778,0.1008706
456876,0.5528469,0.55778,0.1008706
456879,0.5612772,0.5657911,0.1046783
456881,0.5740312,0.5784457,0.1119058
456884,0.5740312,0.5784457,0.1119058
456886,0.5814822,0.5858405,0.1136409
456889,0.5814822,0.5858405,0.1136409
456891,0.5875081,0.591822,0.1170339
456894,0.6006827,0.6045791,0.1203313
456896,0.6006827,0.6045791,0.1203313
456899,0.6068404,0.6110179,0.1203313
456901,0.6167554,0.6208661,0.1219466
456904,0.6167554,0.6208661,0.1219466
456906,0.6211812,0.6249498,0.1235407
456909,0.6211812,0.6249498,0.1235407
456911,0.6236961,0.6277614,0.1235407
456914,0.6236961,0.6271377,0.1251145
456916,0.6236961,0.6271377,0.1251145
456920,0.6173896,0.6208661,0.1266688
456922,0.612617,0.6158028,0.1312212
456925,0.612617,0.6158028,0.1312212
456927,0.6116581,0.615485,0.132704
456930,0.6116581,0.615485,0.132704
456932,0.6138933,0.6177064,0.1341704
456935,0.6227542,0.6262009,0.1312212
456937,0.6227542,0.6262009,0.1312212
456940,0.6321102,0.635814,0.132704
456942,0.6305605,0.6339648,0.132704
456945,0.6305605,0.6339648,0.132704
456947,0.6286958,0.6314908,0.1370561
456950,0.6286958,0.6314908,0.1370561
456952,0.6246366,0.6271377,0.1412742
456955,0.6214961,0.6236961,0.1440177
456957,0.6214961,0.6236961,0.1440177
456961,0.6407191,0.6437659,0.132704
456963,0.659382,0.6632286,0.1219466
456966,0.659382,0.6632286,0.1219466
456968,0.6887025,0.6935157,0.1065312
456970,0.6887025,0.6935157,0.1065312
456973,0.6821364,0.6867107,0.1101434
456975,0.6664661,0.6708556,0.1186941
456978,0.6664661,0.6708556,0.1186941
456980,0.6581939,0.6623429,0.1219466
456983,0.6449805,0.6489125,0.1297215
456985,0.6449805,0.6489125,0.1297215
456988,0.6398023,0.6437659,0.132704
456990,0.6398023,0.6437659,0.132704
456993,0.6333472,0.6367366,0.1370561
456995,0.6274496,0.6308707,0.1398823
456998,0.6274496,0.6308707,0.1398823
457000,0.6202354,0.6230683,0.1440177
457004,0.6265134,0.6296288,0.1384764
457006,0.6265134,0.6296288,0.1384764
457009,0.6398023,0.6437659,0.1282043
457011,0.6398023,0.6437659,0.1282043
457014,0.6471007,0.6507192,0.1219466
457016,0.6608641,0.6652907,0.1136409
457019,0.6608641,0.6652907,0.1136409
457021,0.6676395,0.6720214,0.1101434
457024,0.6676395,0.6720214,0.1101434
457026,0.6734757,0.6778198,0.1065312
457029,0.7107937,0.7157319,0.08622923
457031,0.7107937,0.7157319,0.08622923
457034,0.7378095,0.7423044,0.07401875
457036,0.7553698,0.7600183,0.06852804
457039,0.7553698,0.7600183,0.06852804
457041,0.7833468,0.7875819,0.05233916
457044,0.7833468,0.7875819,0.05233916
457047,0.7800927,0.7843454,0.05595291
457050,0.776825,0.7810954,0.05934703
457052,0.776825,0.7810954,0.05934703
457055,0.7870849,0.7915472,0.05595291
457057,0.8045425,0.8089085,0.05233916
457060,0.8045425,0.8089085,0.05233916
457062,0.8134917,0.8175707,0.05233916
457065,0.8134917,0.8175707,0.05233916
457067,0.8285072,0.8325126,0.03956468
457070,0.8194832,0.82377,0.04845664
457072,0.8194832,0.82377,0.04845664
457075,0.8076981,0.8122882,0.05595291
457077,0.7962303,0.8003972,0.04845664
457080,0.7962303,0.8003972,0.04845664
457082,0.7800927,0.7838463,0.03426402
457085,0.7800927,0.7838463,0.03426402
457088,0.7722777,0.7755645,0.02797646
457091,0.7613045,0.7638705,0.01978234
457093,0.7613045,0.7638705,0.01978234
457096,0.7553698,0.7574393,0
457098,0.747558,0.7483428,0
457100,0.747558,0.7483428,0
457103,0.7265852,0.7276617,0
457105,0.7265852,0.7276617,0
457108,0.694925,0.6960504,0
457110,0.7047113,0.7060983,0.01978234
457113,0.7047113,0.7060983,0.01978234
457115,0.7127182,0.7140896,0.01978234
457118,0.7217214,0.7230757,0
457120,0.7217214,0.7230757,0
457123,0.7241574,0.7252374,0
457125,0.7241574,0.7252374,0
457128,0.7263159,0.7268545,0
457131,0.7268545,0.7271236,0
457134,0.7268545,0.7271236,0
457136,0.7249676,0.7255072,0
457139,0.7236168,0.7230757,-0.01978234
457141,0.7236168,0.7230757,-0.01978234
457144,0.7074825,0.7074825,0
457146,0.7074825,0.7074825,0
457149,0.6835691,0.6844273,0
457151,0.6844273,0.6852845,0
457154,0.6844273,0.6852845,0
457156,0.6849989,0.6852845,0
457159,0.6849989,0.6852845,0
457161,0.6731851,0.6743467,0
457164,0.6549156,0.6564078,0.01978234
457166,0.6549156,0.6564078,0.01978234
457169,0.6474031,0.6495153,0
457171,0.6546168,0.6561096,0
457175,0.6546168,0.6561096,0
457177,0.6635236,0.6647022,0
457180,0.6635236,0.6647022,0
457182,0.6749268,0.6755064,0
457185,0.6815624,0.6818494,0
457187,0.6815624,0.6818494,0
457190,0.6864257,0.6861406,0
457192,0.6946434,0.6937978,0
457195,0.6946434,0.6937978,0
457197,0.6980155,0.697174,0
457200,0.6980155,0.697174,0
457202,0.7047113,0.7035998,-0.01978234
457205,0.7107937,0.709416,0
457207,0.7107937,0.709416,0
457210,0.7129927,0.7113441,0
457212,0.7146374,0.7127182,-0.01978234
457216,0.7146374,0.7127182,-0.01978234
457218,0.7160051,0.7138155,-0.01978234
457221,0.7160051,0.7138155,-0.01978234
457223,0.7162784,0.7140896,-0.01978234
457226,0.7162784,0.7138155,-0.01978234
457228,0.7162784,0.7138155,-0.01978234
457230,0.7168246,0.7138155,-0.02797646
457233,0.717643,0.7146374,-0.02797646
457235,0.717643,0.7146374,-0.02797646
457238,0.7181882,0.7151849,-0.01978234
457240,0.7181882,0.7151849,-0.01978234
457243,0.719005,0.7157319,-0.01978234
457245,0.719005,0.7154584,-0.01978234
457248,0.719005,0.7154584,-0.01978234
457250,0.7187329,0.7151849,-0.02797646
457253,0.7209076,0.7170975,-0.02797646
457255,0.7209076,0.7170975,-0.02797646
457259,0.7214502,0.717643,-0.02797646
457261,0.7214502,0.717643,-0.02797646
457264,0.7219925,0.7181882,-0.02797646
457266,0.7228051,0.719005,-0.03426402
457269,0.7228051,0.719005,-0.03426402
457271,0.7233464,0.7192771,-0.02797646
457274,0.7241574,0.7195491,-0.02797646
457276,0.7241574,0.7195491,-0.02797646
457279,0.7241574,0.7195491,-0.02797646
457281,0.7241574,0.7195491,-0.02797646
457284,0.7214502,0.7165515,-0.03426402
457286,0.7209076,0.7165515,-0.03426402
457289,0.7209076,0.7165515,-0.03426402
457291,0.7206361,0.7162784,-0.03426402
457294,0.7206361,0.7162784,-0.03426402
457296,0.7222635,0.717643,-0.03426402
457299,0.7244276,0.719821,-0.02797646
457302,0.7244276,0.719821,-0.02797646
457305,0.7268545,0.7217214,-0.03426402
457307,0.7284679,0.7236168,-0.03956468
457310,0.7284679,0.7236168,-0.03956468
457312,0.7276617,0.7228051,-0.03956468
457315,0.7276617,0.7228051,-0.03956468
457317,0.7257769,0.7214502,-0.02797646
457320,0.7263159,0.7217214,-0.03426402
457322,0.7263159,0.7217214,-0.03426402
457325,0.7268545,0.7222635,-0.03426402
457327,0.7268545,0.7225344,-0.03956468
457330,0.7268545,0.7225344,-0.03956468
457332,0.7268545,0.7225344,-0.03956468
457335,0.7268545,0.7225344,-0.03956468
457337,0.7257769,0.7222635,-0.02797646
457340,0.7252374,0.7214502,-0.03426402
457342,0.7252374,0.7214502,-0.03426402
457346,0.7252374,0.721179,-0.02797646
457348,0.7252374,0.7214502,-0.02797646
457351,0.7252374,0.7214502,-0.02797646
457353,0.7263159,0.7225344,-0.02797646
457356,0.7263159,0.7225344,-0.02797646
457358,0.7273927,0.7230757,-0.03426402
457361,0.7273927,0.7236168,-0.01978234
457363,0.7273927,0.7236168,-0.01978234
457365,0.7287365,0.7246976,-0.03426402
457368,0.7295417,0.7257769,-0.03426402
457370,0.7295417,0.7257769,-0.03426402
457373,0.7314168,0.7273927,-0.02797646
457375,0.7314168,0.7273927,-0.02797646
457378,0.7306137,0.7265852,-0.02797646
457380,0.7300779,0.7263159,-0.01978234
457383,0.7300779,0.7263159,-0.01978234
457385,0.7295417,0.7257769,-0.01978234
457389,0.7284679,0.7244276,-0.03426402
457391,0.7284679,0.7244276,-0.03426402
457394,0.7287365,0.7246976,-0.02797646
457396,0.7287365,0.7246976,-0.02797646
457399,0.7287365,0.7246976,-0.02797646
457401,0.7279305,0.7241574,-0.03426402
457404,0.7279305,0.7241574,-0.03426402
457406,0.7268545,0.7228051,-0.03426402
457409,0.7246976,0.7206361,-0.03426402
457411,0.7246976,0.7206361,-0.03426402
457414,0.7230757,0.7187329,-0.03426402
457416,0.7230757,0.7187329,-0.03426402
457419,0.7225344,0.7181882,-0.03426402
457421,0.7233464,0.719005,-0.03426402
457424,0.7233464,0.719005,-0.03426402
457426,0.7246976,0.7203645,-0.03956468
457430,0.7246976,0.7203645,-0.03956468
457432,0.7260464,0.7209076,-0.03426402
457435,0.7252374,0.7206361,-0.03426402
457437,0.7252374,0.7206361,-0.03426402
457440,0.7249676,0.7200928,-0.03426402
457442,0.7241574,0.719005,-0.03426402
457445,0.7241574,0.719005,-0.03426402
457447,0.7228051,0.7179157,-0.03426402
457450,0.7228051,0.7179157,-0.03426402
457452,0.7219925,0.7165515,-0.04423466
457455,0.7200928,0.7149112,-0.03956468
457457,0.7200928,0.7149112,-0.03956468
457460,0.719821,0.7143636,-0.03956468
457462,0.7203645,0.7149112,-0.04423466
457465,0.7203645,0.7149112,-0.04423466
457467,0.7206361,0.7149112,-0.04423466
457470,0.7206361,0.7149112,-0.04423466
457473,0.7238871,0.7184606,-0.04423466
457476,0.7252374,0.719821,-0.03956468
457478,0.7252374,0.719821,-0.03956468
457481,0.7263159,0.7209076,-0.03956468
457483,0.7268545,0.721179,-0.03956468
457486,0.7268545,0.721179,-0.03956468
457488,0.7263159,0.7214502,-0.04423466
457491,0.7263159,0.7214502,-0.04423466
457493,0.7263159,0.7214502,-0.03426402
457495,0.7265852,0.7214502,-0.03956468
457498,0.7265852,0.7214502,-0.03956468
457500,0.7268545,0.7214502,-0.03956468
457503,0.7279305,0.7219925,-0.04423466
457505,0.7279305,0.7219925,-0.04423466
457508,0.7284679,0.7225344,-0.03956468
457510,0.7284679,0.7225344,-0.03956468
457513,0.7284679,0.7230757,-0.03956468
457516,0.729005,0.7233464,-0.04423466
457519,0.729005,0.7233464,-0.04423466
457521,0.7292733,0.7238871,-0.03956468
457524,0.7287365,0.7233464,-0.03956468
457526,0.7287365,0.7233464,-0.03956468
457529,0.7281993,0.7225344,-0.04423466
457531,0.7281993,0.7225344,-0.04423466
457534,0.7273927,0.7225344,-0.03956468
457536,0.7249676,0.7203645,-0.03426402
457539,0.7249676,0.7203645,-0.03426402
457541,0.7238871,0.7192771,-0.03426402
457544,0.7228051,0.7173703,-0.03956468
457546,0.7228051,0.7173703,-0.03956468
457549,0.7214502,0.7162784,-0.03426402
457551,0.7214502,0.7162784,-0.03426402
457554,0.7225344,0.7170975,-0.03956468
457556,0.7236168,0.7184606,-0.03956468
457560,0.7236168,0.7184606,-0.03956468
457562,0.7241574,0.719005,-0.03956468
457565,0.7241574,0.719005,-0.03956468
457567,0.7246976,0.7192771,-0.03426402
457570,0.7260464,0.7206361,-0.04423466
457572,0.7260464,0.7206361,-0.04423466
457575,0.7265852,0.721179,-0.03956468
457577,0.7268545,0.7217214,-0.03956468
457580,0.7268545,0.7217214,-0.03956468
457582,0.7268545,0.7209076,-0.04423466
457585,0.7268545,0.7209076,-0.04423466
457587,0.7257769,0.7200928,-0.03956468
457590,0.7252374,0.7195491,-0.03956468
457592,0.7252374,0.7195491,-0.03956468
457595,0.7263159,0.7206361,-0.03956468
457597,0.7271236,0.7217214,-0.03956468
457601,0.7271236,0.7217214,-0.03956468
457603,0.7314168,0.7260464,-0.04423466
457606,0.7314168,0.7260464,-0.04423466
457608,0.7340872,0.729005,-0.04423466
457611,0.7351527,0.7295417,-0.03956468
457613,0.7351527,0.7295417,-0.03956468
457616,0.7367479,0.7311491,-0.03956468
457618,0.7396637,0.7338206,-0.04423466
457621,0.7396637,0.7338206,-0.04423466
457623,0.7433581,0.7380747,-0.04423466
457625,0.7433581,0.7380747,-0.04423466
457628,0.7462481,0.7404569,-0.04423466
457630,0.7501709,0.7446731,-0.04423466
457633,0.7501709,0.7446731,-0.04423466
457635,0.7532945,0.7478197,-0.04845664
457638,0.7579558,0.7519946,-0.04423466
457640,0.7579558,0.7519946,-0.04423466
457644,0.7574393,0.751474,-0.04423466
457646,0.7574393,0.751474,-0.04423466
457649,0.7569224,0.7509531,-0.04845664
457651,0.7558876,0.7501709,-0.04845664
457654,0.7558876,0.7501709,-0.04845664
457656,0.7553698,0.7491269,-0.04845664
457659,0.7535542,0.7467723,-0.04845664
457661,0.7535542,0.7467723,-0.04845664
457664,0.751474,0.7451985,-0.04845664
457666,0.751474,0.7451985,-0.04845664
457669,0.7470343,0.7401926,-0.05233916
457671,0.7433581,0.7370135,-0.04845664
457674,0.7433581,0.7370135,-0.04845664
457676,0.7388696,0.7327532,-0.04845664
457679,0.7372789,0.7308815,-0.04845664
457681,0.7372789,0.7308815,-0.04845664
457684,0.7346201,0.7279305,-0.04423466
457687,0.7346201,0.7279305,-0.04423466
457690,0.7340872,0.7273927,-0.04423466
457692,0.7324861,0.7260464,-0.04423466
457695,0.7324861,0.7260464,-0.04423466
457697,0.7314168,0.7252374,-0.04423466
457700,0.7314168,0.7252374,-0.04423466
457702,0.7300779,0.7241574,-0.04423466
457705,0.7295417,0.7233464,-0.04423466
457707,0.7295417,0.7233464,-0.04423466
457710,0.7273927,0.7217214,-0.03956468
457712,0.7249676,0.7192771,-0.04423466
457715,0.7249676,0.7192771,-0.04423466
457717,0.721179,0.7160051,-0.04423466
457720,0.721179,0.7160051,-0.04423466
457722,0.719821,0.7146374,-0.03956468
457725,0.7181882,0.7127182,-0.03956468
457728,0.7181882,0.7127182,-0.03956468
457731,0.7160051,0.7107937,-0.03956468
457733,0.7127182,0.707759,-0.03956468
457736,0.7127182,0.707759,-0.03956468
457738,0.7121689,0.7072059,-0.03426402
457741,0.7121689,0.7072059,-0.03426402
457743,0.7107937,0.7058211,-0.03426402
457746,0.7121689,0.7069291,-0.03426402
457748,0.7121689,0.7069291,-0.03426402
457751,0.7138155,0.7091401,-0.02797646
457753,0.7132671,0.7083117,-0.03426402
457755,0.7132671,0.7083117,-0.03426402
457758,0.7127182,0.7074825,-0.03956468
457760,0.7127182,0.7074825,-0.03956468
457763,0.7127182,0.7083117,-0.03956468
457765,0.7135413,0.708588,-0.03426402
457768,0.7135413,0.708588,-0.03426402
457771,0.7127182,0.7080355,-0.03956468
457774,0.7121689,0.7069291,-0.03956468
457776,0.7121689,0.7069291,-0.03956468
457779,0.7127182,0.7074825,-0.03426402
457781,0.7127182,0.7074825,-0.03426402
457784,0.7132671,0.708588,-0.03426402
457786,0.7165515,0.7116191,-0.03426402
457789,0.7165515,0.7116191,-0.03426402
457791,0.717643,0.7127182,-0.03426402
457794,0.7179157,0.7129927,-0.03956468
457796,0.7179157,0.7129927,-0.03956468
457799,0.7179157,0.7129927,-0.03956468
457801,0.7179157,0.7129927,-0.03956468
457804,0.7179157,0.7129927,-0.03956468
457806,0.719005,0.7135413,-0.03426402
457809,0.719005,0.7135413,-0.03426402
457811,0.719005,0.7138155,-0.03956468
457815,0.719005,0.7138155,-0.03426402
457817,0.719005,0.7138155,-0.03426402
457820,0.7179157,0.7132671,-0.03426402
457822,0.7179157,0.7132671,-0.03426402
457825,0.7173703,0.7127182,-0.03426402
457827,0.7140896,0.7091401,-0.03956468
457830,0.7140896,0.7091401,-0.03956468
457832,0.7129927,0.7080355,-0.03426402
457835,0.7129927,0.7080355,-0.03426402
457837,0.7140896,0.7088641,-0.03426402
457840,0.7157319,0.7102429,-0.03956468
457842,0.7157319,0.7102429,-0.03956468
457845,0.7149112,0.709416,-0.04423466
457847,0.7140896,0.7088641,-0.04423466
457850,0.7140896,0.7088641,-0.04423466
457852,0.7157319,0.7102429,-0.04423466
457856,0.7157319,0.7102429,-0.04423466
457858,0.7181882,0.7124436,-0.04423466
457861,0.719005,0.7132671,-0.03426402
457863,0.719005,0.7132671,-0.03426402
457866,0.7203645,0.7140896,-0.04423466
457868,0.7195491,0.7140896,-0.04423466
457871,0.7195491,0.7140896,-0.04423466
457873,0.7200928,0.7132671,-0.04845664
457876,0.7200928,0.7132671,-0.04845664
457878,0.7195491,0.7127182,-0.04845664
457881,0.719005,0.7121689,-0.04845664
457883,0.719005,0.7121689,-0.04845664
457885,0.7179157,0.7113441,-0.04845664
457888,0.7170975,0.7105184,-0.04845664
457890,0.7170975,0.7105184,-0.04845664
457893,0.7168246,0.7102429,-0.04845664
457895,0.7168246,0.7102429,-0.04845664
457899,0.7168246,0.7102429,-0.04423466
457901,0.7165515,0.7102429,-0.04423466
457904,0.7165515,0.7102429,-0.04423466
457906,0.7173703,0.711069,-0.04423466
457909,0.7195491,0.7132671,-0.04845664
457911,0.7195491,0.7132671,-0.04845664
457914,0.7206361,0.7146374,-0.04845664
457916,0.7206361,0.7146374,-0.04845664
457919,0.7228051,0.7162784,-0.04423466
457921,0.7233464,0.7170975,-0.04845664
457924,0.7233464,0.7170975,-0.04845664
457926,0.7230757,0.7162784,-0.04423466
457929,0.7219925,0.7154584,-0.04845664
457931,0.7219925,0.7154584,-0.04845664
457934,0.7192771,0.7127182,-0.04423466
457936,0.7192771,0.7127182,-0.04423466
457939,0.7162784,0.7102429,-0.04423466
457942,0.7149112,0.708588,-0.04423466
457945,0.7149112,0.708588,-0.04423466
457947,0.7129927,0.7066523,-0.04423466
457950,0.7124436,0.7060983,-0.04845664
457952,0.7124436,0.7060983,-0.04845664
457955,0.7127182,0.7069291,-0.03956468
457957,0.7127182,0.7069291,-0.03956468
457960,0.7129927,0.7072059,-0.03426402
457962,0.7132671,0.7074825,-0.04423466
457965,0.7132671,0.7074825,-0.04423466
457967,0.7129927,0.7080355,-0.03426402
457970,0.7129927,0.7080355,-0.03426402
457972,0.7121689,0.7069291,-0.04845664
457975,0.711894,0.7066523,-0.03956468
457977,0.711894,0.7066523,-0.03956468
457980,0.7135413,0.707759,-0.03956468
457982,0.7135413,0.7080355,-0.04423466
457986,0.7135413,0.7080355,-0.04423466
457988,0.7168246,0.7107937,-0.03956468
457991,0.7168246,0.7107937,-0.03956468
457993,0.7179157,0.711894,-0.03956468
457996,0.717643,0.7116191,-0.04423466
457998,0.717643,0.7116191,-0.04423466
458001,0.7179157,0.7116191,-0.04845664
458003,0.7160051,0.7096917,-0.03956468
458006,0.7160051,0.7096917,-0.03956468
458008,0.7157319,0.7088641,-0.04423466
458011,0.7157319,0.7088641,-0.04423466
458013,0.711894,0.7058211,-0.03956468
458015,0.7102429,0.7047113,-0.04423466
458018,0.7102429,0.7047113,-0.04423466
458020,0.7107937,0.7047113,-0.03956468
458023,0.7107937,0.7052664,-0.03956468
458025,0.7107937,0.7052664,-0.03956468
458029,0.7124436,0.7069291,-0.03956468
458031,0.7124436,0.7069291,-0.03956468
458034,0.7135413,0.707759,-0.03956468
458036,0.7151849,0.7096917,-0.03956468
458039,0.7151849,0.7096917,-0.03956468
458041,0.7160051,0.7107937,-0.03956468
458044,0.7168246,0.711069,-0.03956468
458046,0.7168246,0.711069,-0.03956468
458049,0.7168246,0.7116191,-0.03956468
458051,0.7168246,0.7116191,-0.03956468
458054,0.7168246,0.7113441,-0.03426402
458056,0.7162784,0.711069,-0.03426402
458059,0.7162784,0.711069,-0.03426402
458061,0.7168246,0.711894,-0.03426402
458064,0.7173703,0.7121689,-0.03426402
458066,0.7173703,0.7121689,-0.03426402
458070,0.7179157,0.7124436,-0.03956468
458072,0.7179157,0.7124436,-0.03956468
458075,0.7181882,0.7129927,-0.03426402
458077,0.7192771,0.7140896,-0.03956468
458080,0.7192771,0.7140896,-0.03956468
458082,0.7203645,0.7146374,-0.04423466
458085,0.721179,0.7160051,-0.03956468
458087,0.721179,0.7160051,-0.03956468
458090,0.7225344,0.7165515,-0.03956468
458092,0.7225344,0.7165515,-0.03956468
458095,0.7233464,0.7170975,-0.04423466
458097,0.7238871,0.7181882,-0.04423466
458100,0.7238871,0.7181882,-0.04423466
458102,0.7241574,0.7181882,-0.03956468
458105,0.7241574,0.717643,-0.04423466
458107,0.7241574,0.717643,-0.04423466
458110,0.7244276,0.7184606,-0.04423466
458113,0.7244276,0.7184606,-0.04423466
458116,0.7246976,0.7184606,-0.04423466
458118,0.7249676,0.7184606,-0.04423466
458121,0.7249676,0.7184606,-0.04423466
458123,0.7241574,0.717643,-0.04423466
458126,0.7241574,0.717643,-0.04423466
458128,0.7238871,0.7173703,-0.04845664
458131,0.7241574,0.7168246,-0.05233916
458133,0.7241574,0.7168246,-0.05233916
458136,0.7238871,0.7165515,-0.04845664
458138,0.7230757,0.7160051,-0.04845664
458141,0.7230757,0.7160051,-0.04845664
458143,0.7230757,0.7160051,-0.05233916
458145,0.7230757,0.7160051,-0.05233916
458148,0.721179,0.7135413,-0.05233916
458150,0.7209076,0.7135413,-0.04845664
458153,0.7209076,0.7135413,-0.04845664
458156,0.7214502,0.7140896,-0.04845664
458159,0.7217214,0.7146374,-0.05233916
458161,0.7217214,0.7146374,-0.05233916
458164,0.721179,0.7140896,-0.05233916
458166,0.721179,0.7140896,-0.05233916
458169,0.7214502,0.7140896,-0.04845664
458171,0.7217214,0.7143636,-0.04845664
458174,0.7217214,0.7143636,-0.04845664
458176,0.7217214,0.7146374,-0.04845664
458179,0.7214502,0.7140896,-0.05233916
458181,0.7214502,0.7140896,-0.05233916
458184,0.7217214,0.7146374,-0.04845664
458186,0.7217214,0.7146374,-0.04845664
458189,0.7219925,0.7151849,-0.04845664
458191,0.7225344,0.7154584,-0.04845664
458194,0.7225344,0.7154584,-0.04845664
458196,0.7214502,0.7140896,-0.05233916
458200,0.7195491,0.7127182,-0.04845664
458202,0.7195491,0.7127182,-0.04845664
458205,0.719821,0.7135413,-0.04845664
458207,0.719821,0.7135413,-0.04845664
458210,0.7206361,0.7138155,-0.04845664
458212,0.7225344,0.7165515,-0.04845664
458215,0.7225344,0.7165515,-0.04845664
458217,0.7230757,0.7170975,-0.03956468
458220,0.7260464,0.7209076,-0.03956468
458222,0.7260464,0.7209076,-0.03956468
458225,0.7276617,0.7222635,-0.03956468
458227,0.7276617,0.7222635,-0.03956468
458230,0.7295417,0.7238871,-0.03956468
458232,0.7300779,0.7246976,-0.03956468
458235,0.7300779,0.7246976,-0.03956468
458237,0.7303458,0.7252374,-0.03956468
458241,0.7300779,0.7249676,-0.03426402
458243,0.7300779,0.7249676,-0.03426402
458246,0.7292733,0.7244276,-0.03956468
458248,0.7292733,0.7244276,-0.03956468
458251,0.729005,0.7241574,-0.03956468
458253,0.7281993,0.7236168,-0.03426402
458256,0.7281993,0.7236168,-0.03426402
458258,0.7279305,0.7233464,-0.02797646
458261,0.7279305,0.7233464,-0.02797646
458263,0.7260464,0.7214502,-0.03426402
458266,0.7236168,0.719005,-0.03956468
458268,0.7236168,0.719005,-0.03956468
458271,0.7241574,0.7195491,-0.03956468
458273,0.7244276,0.7200928,-0.03426402
458275,0.7244276,0.7200928,-0.03426402
458278,0.7217214,0.7168246,-0.03426402
458280,0.7217214,0.7168246,-0.03426402
458284,0.7173703,0.7129927,-0.03426402
458286,0.717643,0.7135413,-0.02797646
458289,0.717643,0.7135413,-0.02797646
458291,0.7179157,0.7135413,-0.02797646
458294,0.719821,0.7151849,-0.03426402
458296,0.719821,0.7151849,-0.03426402
458299,0.7225344,0.7179157,-0.03426402
458301,0.7225344,0.7179157,-0.03426402
458304,0.7236168,0.7187329,-0.03426402
458306,0.7252374,0.7200928,-0.03426402
458309,0.7252374,0.7200928,-0.03426402
458311,0.7268545,0.7225344,-0.03956468
458314,0.7292733,0.7236168,-0.03956468
458316,0.7292733,0.7236168,-0.03956468
458319,0.7308815,0.7252374,-0.03956468
458321,0.7308815,0.7252374,-0.03956468
458324,0.7338206,0.7271236,-0.04423466
458327,0.7362165,0.7300779,-0.04423466
458330,0.7362165,0.7300779,-0.04423466
458332,0.7375443,0.7311491,-0.04845664
458335,0.7372789,0.7303458,-0.04845664
458337,0.7372789,0.7303458,-0.04845664
458340,0.7362165,0.7292733,-0.04845664
458342,0.7362165,0.7292733,-0.04845664
458345,0.7335538,0.7265852,-0.04845664
458347,0.7319516,0.7246976,-0.05595291
458350,0.7319516,0.7246976,-0.05595291
458352,0.7553698,0.7420408,-0.08392937
458355,0.7765731,0.7579558,-0.1119058
458357,0.7765731,0.7579558,-0.1119058
458360,0.8201992,0.7888232,-0.165511
458362,0.8201992,0.7888232,-0.165511
458365,0.861165,0.8170919,-0.2158
458368,0.8818219,0.8318071,-0.2406627
458371,0.8818219,0.8318071,-0.2406627
458373,0.9002688,0.844183,-0.261696
458376,0.930201,0.8645667,-0.2940859
458378,0.930201,0.8645667,-0.2940859
458381,0.9423231,0.8729007,-0.3071049
458383,0.9423231,0.8729007,-0.3071049
458386,0.9610341,0.8851442,-0.3280534
458388,0.9745807,0.8941622,-0.3432113
458391,0.9745807,0.8941622,-0.3432113
458393,0.9749822,0.892629,-0.3454843
458396,0.9749822,0.892629,-0.3454843
458398,0.9783881,0.8924097,-0.3527702
458401,0.9807853,0.8932863,-0.3560827
458403,0.9807853,0.8932863,-0.3560827
458405,0.9781881,0.8880135,-0.3588198
458408,0.9783881,0.886911,-0.360452
458411,0.9783881,0.886911,-0.360452
458414,0.9717657,0.8793777,-0.358274
458416,0.9717657,0.8793777,-0.358274
458419,0.9669209,0.8740209,-0.3571801
458421,0.9646922,0.8717791,-0.3555328
458424,0.9646922,0.8717791,-0.3555328
458426,0.9636774,0.8702065,-0.3560827
458429,0.9565441,0.8625273,-0.3544303
458431,0.9565441,0.8625273,-0.3544303
458434,0.9547011,0.8607104,-0.354982
458436,0.9547011,0.8607104,-0.354982
458439,0.949151,0.8554656,-0.3511023
458441,0.9435682,0.8501883,-0.3477423
458444,0.9435682,0.8501883,-0.3477423
458446,0.9402443,0.8474219,-0.3460502
458449,0.9362817,0.8444148,-0.3426407
458451,0.9362817,0.8444148,-0.3426407
458455,0.9350269,0.8434873,-0.3403488
458457,0.9350269,0.8434873,-0.3403488
458460,0.9320924,0.8416294,-0.3374619
458462,0.9306217,0.8409316,-0.3357179
458465,0.9306217,0.8409316,-0.3357179
458467,0.9295698,0.8400003,-0.3351346
458470,0.9278842,0.8383681,-0.3333784
458472,0.9278842,0.8383681,-0.3333784
458475,0.9236568,0.8353283,-0.3316129
458477,0.9236568,0.8353283,-0.3316129
458480,0.9215358,0.8332174,-0.329838
458482,0.91941,0.8311011,-0.3292442
458485,0.91941,0.8311011,-0.3292442
458487,0.9112865,0.8268523,-0.3195939
458490,0.9009206,0.8216294,-0.3071049
458492,0.9009206,0.8216294,-0.3071049
458496,0.8943809,0.8192443,-0.2973941
458498,0.8943809,0.8192443,-0.2973941
458501,0.8862489,0.8161334,-0.2839303
458503,0.8742447,0.8108415,-0.2661444
458506,0.8742447,0.8108415,-0.2661444
458508,0.8575217,0.8035691,-0.2406627
458511,0.8485757,0.7977034,-0.2298502
458513,0.8485757,0.7977034,-0.2298502
458516,0.8453411,0.7959845,-0.2264194
458518,0.8453411,0.7959845,-0.2264194
458521,0.8393012,0.7932757,-0.2158
458523,0.8303944,0.7900625,-0.1988102
458526,0.8303944,0.7900625,-0.1988102
458528,0.8230571,0.7848442,-0.1897456
458531,0.8230571,0.7848442,-0.1897456
458533,0.812529,0.7783349,-0.1769387
458535,0.8047857,0.7740492,-0.1643245
458539,0.8047857,0.7740492,-0.1643245
458541,0.8018627,0.772531,-0.1594904
458544,0.7977034,0.7702479,-0.1519511
458546,0.7977034,0.7702479,-0.1519511
458549,0.7962303,0.7697397,-0.1480375
458551,0.7962303,0.7697397,-0.1480375
458554,0.920261,0.892629,-0.1713202
458556,0.9675278,0.9396197,-0.1791368
458559,0.9675278,0.9396197,-0.1791368
458561,1.095037,1.065511,-0.2036718
458564,1.143979,1.113994,-0.2130625
458566,1.143979,1.113994,-0.2130625
458569,1.231147,1.199915,-0.2289973
458571,1.231147,1.199915,-0.2289973
458574,1.269954,1.238279,-0.235734
458576,1.332955,1.300256,-0.2470816
458579,1.332955,1.300256,-0.2470816
458582,1.358835,1.325742,-0.2525642
458585,1.399277,1.365587,-0.2601963
458587,1.399277,1.365587,-0.2601963
458590,1.429303,1.395075,-0.2661444
458592,1.429303,1.395075,-0.2661444
458595,1.437222,1.402769,-0.2668786
458597,1.455622,1.421202,-0.2690692
458600,1.455622,1.421202,-0.2690692
458602,1.458174,1.423816,-0.2690692
458605,1.467938,1.433677,-0.2697954
458607,1.467938,1.433677,-0.2697954
458610,1.470335,1.436132,-0.2697954
458612,1.470335,1.436132,-0.2697954
458615,1.479226,1.445368,-0.2690692
458617,1.479358,1.445639,-0.2690692
458620,1.479358,1.445639,-0.2690692
458622,1.481737,1.447938,-0.2676108
458626,1.483453,1.449964,-0.2676108
458628,1.483453,1.449964,-0.2676108
458631,1.485167,1.451313,-0.2676108
458633,1.485167,1.451313,-0.2676108
458636,1.483717,1.449829,-0.2676108
458638,1.484113,1.450369,-0.268341
458641,1.485958,1.451987,-0.2690692
458643,1.482925,1.448749,-0.2690692
458646,1.481869,1.447533,-0.2697954
458648,1.481869,1.447533,-0.2697954
458651,1.479887,1.445368,-0.2705197
458653,1.479887,1.445368,-0.2705197
458656,1.479226,1.444556,-0.2705197
458658,1.477902,1.443065,-0.2712421
458661,1.477902,1.443065,-0.2712421
458663,1.477505,1.442522,-0.2719625
458667,1.477505,1.442522,-0.2719625
458669,1.480019,1.444826,-0.2733977
458671,1.478167,1.4432,-0.2733977
458674,1.478167,1.4432,-0.2733977
458676,1.479094,1.444014,-0.2741124
458679,1.479623,1.44442,-0.2741124
458681,1.479623,1.44442,-0.2741124
458684,1.480813,1.445639,-0.2748253
458686,1.480813,1.445639,-0.2748253
458689,1.483585,1.448344,-0.2755364
458691,1.485694,1.450369,-0.2762456
458694,1.485694,1.450369,-0.2762456
458696,1.488589,1.453469,-0.276953
458699,1.490691,1.455353,-0.2776587
458701,1.490691,1.455353,-0.2776587
458704,1.492397,1.456697,-0.2783625
458706,1.492397,1.456697,-0.2783625
458710,1.493838,1.458174,-0.2797648
458712,1.493838,1.457771,-0.2818553
458715,1.493838,1.457771,-0.2818553
458717,1.494755,1.458576,-0.2825486
458720,1.49279,1.455756,-0.2853053
458722,1.49279,1.455756,-0.2853053
458725,1.49279,1.455487,-0.2866737
458727,1.49279,1.455487,-0.2866737
458730,1.490822,1.45293,-0.2880355
458732,1.490822,1.452526,-0.2900664
458735,1.490822,1.452526,-0.2900664
458737,1.492265,1.453604,-0.2920831
458740,1.492265,1.453604,-0.2920831
458742,1.492265,1.453604,-0.2920831
458745,1.492265,1.453604,-0.2920831
458747,1.492265,1.453604,-0.2920831
458750,1.478299,1.440757,-0.2859903
458753,1.382393,1.347701,-0.2601963
458756,1.382393,1.347701,-0.2601963
458758,1.237172,1.207069,-0.2220564
458761,1.077927,1.052205,-0.1813082
458763,1.077927,1.052205,-0.1813082
458766,1.016833,0.992881,-0.165511
458768,1.016833,0.992881,-0.165511
458771,0.9446045,0.9234449,-0.14537
458773,0.9151434,0.8948184,-0.1370561
458776,0.9151434,0.8948184,-0.1370561
458778,0.8802673,0.8616194,-0.1251145
458781,0.8634343,0.8455727,-0.1219466
458783,0.8634343,0.8455727,-0.1219466
458786,0.8494976,0.8318071,-0.1170339
458788,0.8494976,0.8318071,-0.1170339
458791,0.8411642,0.8240075,-0.1153499
458793,0.8400003,0.8230571,-0.1136409
458797,0.8400003,0.8230571,-0.1136409
458799,0.8360308,0.8194832,-0.1119058
458801,0.8360308,0.8194832,-0.1119058
458804,0.8353283,0.8187665,-0.1101434
458806,0.8322775,0.8156537,-0.1101434
458809,0.8322775,0.8156537,-0.1101434
458811,0.8270888,0.8108415,-0.1083524
458814,0.8244823,0.8081825,-0.1083524
458816,0.8244823,0.8081825,-0.1083524
458819,0.8244823,0.8081825,-0.1065312
458821,0.8244823,0.8081825,-0.1065312
458824,0.8192443,0.8030819,-0.1065312
458826,0.81781,0.8011303,-0.1065312
458829,0.8149337,0.798929,-0.1046783
458831,0.8115651,0.7952467,-0.1046783
458834,0.8045425,0.7880787,-0.1046783
458836,0.8045425,0.7880787,-0.1046783
458840,0.8011303,0.7848442,-0.1027921
458842,0.8011303,0.7848442,-0.1027921
458845,0.7945082,0.7780834,-0.1046783
458847,0.7908052,0.7748073,-0.1027921
458850,0.7908052,0.7748073,-0.1027921
458852,0.7850935,0.7689767,-0.1027921
458855,0.782347,0.7661725,-0.1008706
458857,0.782347,0.7661725,-0.1008706
458860,0.7780834,0.7625886,-0.09891172
458862,0.7780834,0.7625886,-0.09891172
458865,0.7765731,0.7610474,-0.09891172
458867,0.774302,0.7589878,-0.09691329
458870,0.774302,0.7589878,-0.09691329
458872,0.7732905,0.7582139,-0.09691329
458875,0.7858408,0.7697397,-0.1027921
458877,0.7858408,0.7697397,-0.1027921
458881,0.796476,0.7798419,-0.1046783
458883,0.8047857,0.7873334,-0.1083524
458886,0.8045425,0.7875819,-0.1083524
458888,0.8033255,0.7868362,-0.1046783
458891,0.8033255,0.7868362,-0.1046783
458893,0.8168523,0.7999081,-0.1101434
458896,0.8379012,0.8201992,-0.1153499
458898,0.8379012,0.8201992,-0.1153499
458901,0.8451096,0.8273254,-0.1186941
458903,0.8451096,0.8273254,-0.1186941
458906,0.8693066,0.8501883,-0.1251145
458908,0.8775957,0.858206,-0.1282043
458911,0.8775957,0.858206,-0.1282043
458913,0.9011378,0.8816,-0.132704
458916,0.9093519,0.8897746,-0.132704
458918,0.9093519,0.8897746,-0.132704
458921,0.9285166,0.9087062,-0.1356209
458924,0.9285166,0.9087062,-0.1356209
458927,0.9350269,0.9153573,-0.1370561
458929,0.9475003,0.9278842,-0.1384764
458931,0.9475003,0.9278842,-0.1384764
458934,0.9518273,0.9320924,-0.1384764
458936,0.9518273,0.9320924,-0.1384764
458939,0.9624583,0.9431533,-0.1398823
458941,0.9659084,0.9468806,-0.1398823
458944,0.9659084,0.9468806,-0.1398823
458946,0.9715644,0.9522384,-0.1398823
458949,0.9761857,0.9571576,-0.1384764
458951,0.9761857,0.9571576,-0.1384764
458954,0.9781881,0.9596078,-0.1398823
458956,0.9781881,0.9596078,-0.1398823
458959,0.9785881,0.9600154,-0.1398823
458961,0.9775878,0.9591998,-0.1384764
458964,0.9775878,0.9591998,-0.1384764
458967,0.9759852,0.957362,-0.1384764
458970,0.9751828,0.9565441,-0.1370561
458972,0.9751828,0.9565441,-0.1370561
458975,0.9735762,0.9555206,-0.1356209
458977,0.9735762,0.9555206,-0.1356209
458980,0.9715644,0.9534706,-0.1356209
458982,0.9687405,0.9507989,-0.1356209
458985,0.9687405,0.9507989,-0.1356209
458987,0.9675278,0.9497693,-0.1341704
458990,0.9671232,0.9493572,-0.1341704
458992,0.9671232,0.9493572,-0.1341704
458995,0.970355,0.9528548,-0.1341704
458997,0.970355,0.9528548,-0.1341704
459000,0.9713628,0.953881,-0.132704
459002,0.9713628,0.9540861,-0.132704
459005,0.9713628,0.9540861,-0.132704
459008,0.9713628,0.9542912,-0.1312212
459011,0.9747815,0.957975,-0.1312212
459013,0.9747815,0.957975,-0.1312212
459016,0.9759852,0.9589957,-0.1312212
459018,0.9759852,0.9589957,-0.1312212
459021,0.9771874,0.9608305,-0.1312212
459023,0.977788,0.9614412,-0.1312212
459026,0.977788,0.9614412,-0.1312212
459028,0.9795874,0.9632712,-0.1297215
459031,0.9811842,0.964895,-0.1297215
459033,0.9811842,0.964895,-0.1297215
459036,0.9813836,0.9659084,-0.1282043
459038,0.9813836,0.9659084,-0.1282043
459041,0.9825793,0.9667184,-0.1266688
459043,0.9801866,0.964895,-0.1266688
459046,0.9801866,0.964895,-0.1266688
459048,0.9763861,0.9616448,-0.1235407
459052,0.9767869,0.9618481,-0.1219466
459054,0.9767869,0.9618481,-0.1219466
459057,0.9773876,0.9624583,-0.1235407
459059,0.9773876,0.9624583,-0.1235407
459061,0.9771874,0.9628648,-0.1219466
459064,0.9773876,0.9632712,-0.1219466
459066,0.9773876,0.9632712,-0.1219466
459069,0.9769872,0.9628648,-0.1203313
459071,0.9769872,0.9628648,-0.1203313
459074,0.9763861,0.962255,-0.1203313
459076,0.9757847,0.9620516,-0.1203313
459079,0.9757847,0.9620516,-0.1203313
459081,0.9751828,0.9610341,-0.1186941
459084,0.9747815,0.960423,-0.1186941
459086,0.9747815,0.960423,-0.1186941
459089,0.974179,0.9606267,-0.1186941
459091,0.974179,0.9606267,-0.1186941
459095,0.9737772,0.9602193,-0.1170339
459097,0.9737772,0.9600154,-0.1186941
459100,0.9737772,0.9600154,-0.1186941
459102,0.9717657,0.957975,-0.1186941
459105,0.970355,0.9565441,-0.1186941
459107,0.970355,0.9565441,-0.1186941
459110,0.9683364,0.9544962,-0.1186941
459112,0.9683364,0.9544962,-0.1186941
459115,0.9679322,0.9532654,-0.1186941
459117,0.9640834,0.9497693,-0.1203313
459120,0.9640834,0.9497693,-0.1203313
459122,0.9598116,0.9450188,-0.1203313
459125,0.9581792,0.9435682,-0.1203313
459127,0.9581792,0.9435682,-0.1203313
459130,0.9485323,0.9337703,-0.1186941
459132,0.9485323,0.9337703,-0.1186941
459136,0.9452258,0.9306217,-0.1170339
459138,0.9423231,0.9276733,-0.1186941
459141,0.9423231,0.9276733,-0.1186941
459143,0.9362817,0.9211111,-0.1186941
459146,0.9329317,0.9177057,-0.1186941
459148,0.9329317,0.9177057,-0.1186941
459151,0.9272513,0.9119305,-0.1186941
459153,0.9272513,0.9119305,-0.1186941
459156,0.9249271,0.9095671,-0.1186941
459158,0.9215358,0.9063343,-0.1186941
459161,0.9215358,0.9063343,-0.1186941
459163,0.9168525,0.9009206,-0.1186941
459166,0.9149297,0.8989637,-0.1203313
459168,0.9149297,0.8989637,-0.1203313
459171,0.916212,0.8996165,-0.1235407
459173,0.916212,0.8996165,-0.1235407
459176,0.9164255,0.899834,-0.1235407
459179,0.917919,0.9013549,-0.1251145
459182,0.917919,0.9013549,-0.1251145
459184,0.9185583,0.901572,-0.1251145
459187,0.91941,0.9026566,-0.1251145
459189,0.91941,0.9026566,-0.1251145
459191,0.9198356,0.90309,-0.1251145
459194,0.9198356,0.90309,-0.1251145
459196,0.9181321,0.901572,-0.1251145
459199,0.9177057,0.9007034,-0.1251145
459201,0.9177057,0.9007034,-0.1251145
459204,0.9151434,0.8989637,-0.1219466
459206,0.9151434,0.8989637,-0.1219466
459209,0.9140738,0.8983104,-0.1219466
459211,0.8306301,0.8076981,-0.1440177
459214,0.8306301,0.8076981,-0.1440177
459216,0.7745547,0.7451985,-0.1607126
459219,0.7788376,0.7501709,-0.1582588
459222,0.7788376,0.7501709,-0.1582588
459225,0.783097,0.7558876,-0.1557664
459227,0.783097,0.7558876,-0.1557664
459230,0.796476,0.770502,-0.1506579
459232,0.8151737,0.7917944,-0.1426525
459235,0.8151737,0.7917944,-0.1426525
459237,0.8275619,0.8057577,-0.1384764
459240,0.8455727,0.8256681,-0.132704
459242,0.8455727,0.8256681,-0.132704
459245,0.8320423,0.811324,-0.1341704
459247,0.8320423,0.811324,-0.1341704
459250,0.8266156,0.8055148,-0.1341704
459252,0.8139727,0.7922885,-0.1370561
459255,0.8139727,0.7922885,-0.1370561
459257,0.8091505,0.7865875,-0.1384764
459260,0.798684,0.7755645,-0.1398823
459262,0.798684,0.7755645,-0.1398823
459266,0.7937689,0.7702479,-0.1412742
459268,0.7937689,0.7702479,-0.1412742
459271,0.7870849,0.7628451,-0.1440177
459273,0.7848442,0.7600183,-0.14537
459276,0.7848442,0.7600183,-0.14537
459278,0.7808449,0.7558876,-0.14537
459281,0.7793398,0.7540734,-0.14537
459283,0.7793398,0.7540734,-0.14537
459286,0.7780834,0.7525149,-0.1480375
459288,0.7780834,0.7525149,-0.1480375
459291,0.7780834,0.7522548,-0.1480375
459293,0.7770769,0.7506924,-0.1480375
459296,0.7770769,0.7506924,-0.1480375
459298,0.7753122,0.7486043,-0.1493534
459301,0.7775803,0.7504317,-0.1493534
459303,0.7775803,0.7504317,-0.1493534
459307,0.7798419,0.7522548,-0.1519511
459309,0.7798419,0.7522548,-0.1519511
459312,0.783097,0.7556288,-0.1519511
459314,0.7858408,0.7582139,-0.1532334
459317,0.7878303,0.7595032,-0.1545051
459319,0.7912999,0.7633579,-0.1545051
459321,0.7959845,0.7677034,-0.1570175
459324,0.7959845,0.7677034,-0.1570175
459326,0.7974581,0.7692311,-0.1557664
459329,0.7974581,0.7692311,-0.1557664
459331,0.798929,0.770502,-0.1570175
459334,0.8001527,0.7717707,-0.1557664
459336,0.8001527,0.7717707,-0.1557664
459339,0.8018627,0.7735435,-0.1570175
459341,0.8018627,0.7735435,-0.1570175
459344,0.8035691,0.7755645,-0.1557664
459346,0.8052719,0.7773286,-0.1557664
459350,0.8052719,0.7773286,-0.1557664
459352,0.8057577,0.7778319,-0.1557664
459355,0.8072135,0.7788376,-0.1570175
459357,0.8072135,0.7788376,-0.1570175
459360,0.8081825,0.7798419,-0.1570175
459362,0.8081825,0.7798419,-0.1570175
459365,0.8081825,0.7800927,-0.1557664
459367,0.8110828,0.783097,-0.1557664
459370,0.8110828,0.783097,-0.1557664
459372,0.8132511,0.7855918,-0.1557664
459375,0.8139727,0.7868362,-0.1545051
459377,0.8139727,0.7868362,-0.1545051
459380,0.8130105,0.7860898,-0.1532334
459382,0.8130105,0.7860898,-0.1532334
459385,0.8127698,0.7860898,-0.1519511
459387,0.8127698,0.7863387,-0.1519511
459390,0.8127698,0.7863387,-0.1519511
459393,0.8137322,0.7870849,-0.1532334
459396,0.8144533,0.7880787,-0.1532334
459398,0.8144533,0.7880787,-0.1532334
459401,0.8151737,0.7883269,-0.1532334
459403,0.8151737,0.7883269,-0.1532334
459406,0.8163731,0.7893192,-0.1532334
459408,0.8158936,0.7900625,-0.1519511
459411,0.8158936,0.7900625,-0.1519511
459413,0.8154138,0.7895671,-0.1519511
459416,0.814213,0.7885751,-0.1506579
459418,0.814213,0.7885751,-0.1506579
459421,0.8134917,0.7878303,-0.1506579
459423,0.8134917,0.7878303,-0.1506579
459426,0.8118062,0.7860898,-0.1493534
459428,0.8089085,0.7840959,-0.1480375
459431,0.8089085,0.7840959,-0.1480375
459433,0.8079404,0.783097,-0.1480375
459437,0.8060005,0.7808449,-0.1467098
459439,0.8060005,0.7808449,-0.1467098
459442,0.8047857,0.7800927,-0.14537
459444,0.8047857,0.7800927,-0.14537
459447,0.8001527,0.7758168,-0.14537
459449,0.798684,0.7740492,-0.1440177
459451,0.798684,0.7740492,-0.1440177
459454,0.7962303,0.7717707,-0.1440177
459456,0.7954926,0.7712635,-0.1440177
459459,0.7954926,0.7712635,-0.1440177
459461,0.7942618,0.7694854,-0.1426525
459464,0.7942618,0.7694854,-0.1426525
459466,0.7937689,0.7692311,-0.1426525
459469,0.7967216,0.7717707,-0.14537
459471,0.7967216,0.7717707,-0.14537
459474,0.7979487,0.772531,-0.1467098
459476,0.8025945,0.7763211,-0.1480375
459480,0.8025945,0.7763211,-0.1480375
459482,0.8052719,0.7790887,-0.1506579
459485,0.8052719,0.7790887,-0.1506579
459487,0.8052719,0.7788376,-0.1506579
459490,0.8050289,0.7780834,-0.1532334
459492,0.8050289,0.7780834,-0.1532334
459495,0.8052719,0.7775803,-0.1545051
459497,0.8052719,0.7775803,-0.1545051
459500,0.8052719,0.7775803,-0.1557664
459502,0.804056,0.7763211,-0.1545051
459505,0.804056,0.7763211,-0.1545051
459507,0.8023506,0.7748073,-0.1545051
459510,0.8030819,0.7755645,-0.1545051
459512,0.8030819,0.7755645,-0.1545051
459515,0.804056,0.7765731,-0.1570175
459517,0.8042993,0.7765731,-0.1570175
459521,0.8067285,0.7788376,-0.1570175
459523,0.8098756,0.7820969,-0.1570175
459526,0.8098756,0.7820969,-0.1570175
459528,0.8093922,0.7815963,-0.1570175
459531,0.8086666,0.7805943,-0.1570175
459533,0.8086666,0.7805943,-0.1570175
459536,0.8076981,0.7795909,-0.1570175
459538,0.8076981,0.7795909,-0.1570175
459541,0.8064859,0.7783349,-0.1570175
459543,0.8052719,0.7773286,-0.1557664
459546,0.8052719,0.7773286,-0.1557664
459548,0.8033255,0.7760689,-0.1557664
459551,0.8035691,0.7760689,-0.1557664
459553,0.8035691,0.7760689,-0.1557664
459556,0.8028382,0.7755645,-0.1519511
459558,0.8028382,0.7755645,-0.1519511
459561,0.8011303,0.7740492,-0.1532334
459564,0.798439,0.7712635,-0.1519511
459567,0.798439,0.7712635,-0.1519511
459569,0.798684,0.7717707,-0.1506579
459572,0.7994187,0.772531,-0.1506579
459574,0.7994187,0.772531,-0.1506579
459577,0.798929,0.772531,-0.1506579
459579,0.798929,0.772531,-0.1506579
459581,0.798684,0.7722777,-0.1493534
459584,0.798684,0.7722777,-0.1480375
459586,0.798684,0.7722777,-0.1480375
459589,0.798684,0.7722777,-0.1480375
459591,0.798929,0.7722777,-0.1480375
459594,0.798929,0.7722777,-0.1480375
459596,0.7962303,0.770502,-0.1467098
459599,0.7962303,0.770502,-0.1467098
459601,0.7945082,0.7687222,-0.14537
459604,0.7940154,0.7682129,-0.1467098
459607,0.7940154,0.7682129,-0.1467098
459610,0.7945082,0.7684676,-0.14537
459612,0.7954926,0.7694854,-0.14537
459615,0.7954926,0.7694854,-0.14537
459617,0.7979487,0.7720242,-0.1440177
459620,0.7979487,0.7720242,-0.1440177
459622,0.7994187,0.7740492,-0.14537
459625,0.8025945,0.7778319,-0.1440177
459627,0.8025945,0.7778319,-0.1440177
459630,0.8050289,0.7795909,-0.14537
459632,0.8050289,0.7795909,-0.14537
459635,0.8074558,0.7820969,-0.1467098
459637,0.8076981,0.7828471,-0.14537
459640,0.8076981,0.7828471,-0.14537
459642,0.8108415,0.7858408,-0.14537
459645,0.8127698,0.7875819,-0.14537
459648,0.8127698,0.7875819,-0.14537
459651,0.8161334,0.7908052,-0.1467098
459653,0.8161334,0.7908052,-0.1467098
459656,0.81781,0.7922885,-0.1467098
459658,0.8199606,0.7942618,-0.1480375
459661,0.8199606,0.7942618,-0.1480375
459663,0.8228193,0.7969672,-0.1493534
459666,0.8275619,0.800886,-0.1519511
459668,0.8275619,0.800886,-0.1519511
459671,0.8315719,0.804056,-0.1557664
459673,0.8315719,0.804056,-0.1557664
459676,0.8329825,0.8055148,-0.1557664
459678,0.8339216,0.8067285,-0.1557664
459681,0.8339216,0.8067285,-0.1557664
459683,0.8339216,0.8067285,-0.1557664
459686,0.8339216,0.8067285,-0.1557664
459688,0.8339216,0.8067285,-0.1557664
459692,0.8357967,0.8081825,-0.1557664
459694,0.8357967,0.8081825,-0.1557664
459697,0.8379012,0.8096339,-0.1570175
459699,0.8383681,0.8101172,-0.1582588
459702,0.8383681,0.8101172,-0.1582588
459704,0.8383681,0.8098756,-0.1582588
459707,0.8383681,0.8096339,-0.1582588
459709,0.8383681,0.8096339,-0.1582588
459711,0.8374339,0.8093922,-0.1582588
459714,0.8374339,0.8093922,-0.1582588
459716,0.8364988,0.8089085,-0.1570175
459719,0.8367326,0.8089085,-0.1570175
459721,0.8367326,0.8089085,-0.1570175
459724,0.8367326,0.8091505,-0.1570175
459726,0.8379012,0.8098756,-0.1570175
459729,0.8379012,0.8098756,-0.1570175
459731,0.8393012,0.811324,-0.1594904
459735,0.8393012,0.811324,-0.1594904
459737,0.8383681,0.8106001,-0.1582588
459740,0.8376676,0.8093922,-0.1582588
459742,0.8376676,0.8093922,-0.1582588
459745,0.8322775,0.804056,-0.1594904
459747,0.8306301,0.8018627,-0.1594904
459750,0.8306301,0.8018627,-0.1594904
459752,0.8270888,0.798439,-0.1594904
459755,0.8270888,0.798439,-0.1594904
459757,0.8256681,0.7972127,-0.1594904
459760,0.8230571,0.7950006,-0.1582588
459762,0.8230571,0.7950006,-0.1582588
459765,0.8221055,0.7942618,-0.1570175
459767,0.8221055,0.7942618,-0.1570175
459770,0.8216294,0.7942618,-0.1582588
459772,0.8221055,0.7947544,-0.1557664
459776,0.8221055,0.7947544,-0.1557664
459778,0.8232948,0.7962303,-0.1545051
459781,0.8240075,0.7972127,-0.1545051
459783,0.8240075,0.7972127,-0.1545051
459786,0.8244823,0.7979487,-0.1545051
459788,0.8244823,0.7979487,-0.1545051
459791,0.8242449,0.7974581,-0.1532334
459793,0.8218675,0.7954926,-0.1519511
459796,0.8218675,0.7954926,-0.1519511
459798,0.8190054,0.7930291,-0.1532334
459801,0.8163731,0.7905577,-0.1519511
459803,0.8163731,0.7905577,-0.1519511
459806,0.8127698,0.7870849,-0.1519511
459808,0.8127698,0.7870849,-0.1519511
459811,0.812529,0.7865875,-0.1519511
459813,0.8127698,0.7858408,-0.1532334
459816,0.8127698,0.7858408,-0.1532334
459819,0.8108415,0.7843454,-0.1532334
459822,0.8084246,0.7818466,-0.1532334
459824,0.8084246,0.7818466,-0.1532334
459827,0.8047857,0.7778319,-0.1545051
459829,0.8047857,0.7778319,-0.1545051
459832,0.7996635,0.7720242,-0.1570175
459834,0.7952467,0.7674484,-0.1570175
459837,0.7952467,0.7674484,-0.1570175
459839,0.7890712,0.760533,-0.1594904
459841,0.8006416,0.7730374,-0.1582588
459844,0.8006416,0.7730374,-0.1582588
459846,0.8120472,0.7855918,-0.1557664
459849,0.8120472,0.7855918,-0.1557664
459851,0.8216294,0.7962303,-0.1532334
459854,0.7727842,0.7420408,-0.165511
459856,0.7727842,0.7420408,-0.165511
459859,0.7551107,0.7222635,-0.1713202
459862,0.7720242,0.7409853,-0.165511
459865,0.7720242,0.7409853,-0.165511
459867,0.7780834,0.7478197,-0.1643245
459870,0.7780834,0.7478197,-0.1643245
459872,0.8120472,0.7853427,-0.1557664
459875,0.8249568,0.7996635,-0.1532334
459877,0.8249568,0.7996635,-0.1532334
459880,0.8552368,0.8329825,-0.1440177
459882,0.866827,0.8455727,-0.1412742
459885,0.8780415,0.8577499,-0.1370561
459887,0.8877931,0.8684058,-0.1341704
459890,0.8877931,0.8684058,-0.1341704
459892,0.9013549,0.8833739,-0.1297215
459895,0.9065502,0.8888945,-0.1266688
459897,0.9065502,0.8888945,-0.1266688
459900,0.9110718,0.8939433,-0.1266688
459902,0.9110718,0.8939433,-0.1266688
459906,0.916212,0.8996165,-0.1235407
459908,0.9219604,0.9059024,-0.1219466
459911,0.9219604,0.9059024,-0.1219466
459913,0.9251386,0.9091367,-0.1219466
459916,0.9278842,0.9121451,-0.1219466
459918,0.9278842,0.9121451,-0.1219466
459921,0.9312522,0.9155711,-0.1203313
459923,0.9312522,0.9155711,-0.1203313
459926,0.9333511,0.9174925,-0.1203313
459928,0.9339799,0.9183452,-0.1219466
459931,0.9339799,0.9183452,-0.1219466
459933,0.932722,0.9172792,-0.1186941
459936,0.9314623,0.916212,-0.1186941
459938,0.9314623,0.916212,-0.1186941
459941,0.9259842,0.9106421,-0.1170339
459943,0.9259842,0.9106421,-0.1170339
459947,0.9221727,0.9074132,-0.1136409
459949,0.917919,0.9033066,-0.1119058
459952,0.917919,0.9033066,-0.1119058
459954,0.9138597,0.899399,-0.1119058
459957,0.9084908,0.8941622,-0.1136409
459959,0.9084908,0.8941622,-0.1136409
459962,0.9039564,0.8893346,-0.1101434
459964,0.9039564,0.8893346,-0.1101434
459967,0.8985283,0.8842595,-0.1101434
459969,0.8991814,0.8844808,-0.1101434
459972,0.8991814,0.8844808,-0.1101434
459974,0.9009206,0.8864697,-0.1119058
459976,0.9054703,0.8904341,-0.1136409
459979,0.9054703,0.8904341,-0.1136409
459981,0.912574,0.8972207,-0.1153499
459984,0.912574,0.8972207,-0.1153499
459986,0.9177057,0.9022229,-0.1170339
459990,0.9259842,0.9099972,-0.1219466
459992,0.9259842,0.9099972,-0.1219466
459995,0.9289381,0.9130027,-0.1219466
459997,0.9366996,0.9208986,-0.1235407
460000,0.9366996,0.9208986,-0.1235407
460002,0.9089215,0.8932863,-0.1153499
460005,0.9089215,0.8932863,-0.1153499
460007,0.8987461,0.8829308,-0.1153499
460010,0.9499753,0.9333511,-0.1251145
460012,0.9499753,0.9333511,-0.1251145
460015,1.040611,1.021825,-0.14537
460017,1.104999,1.084803,-0.1582588
460020,1.104999,1.084803,-0.1582588
460022,1.204473,1.182502,-0.1780411
460025,1.204473,1.182502,-0.1780411
460027,1.247881,1.225252,-0.1866263
460030,1.317004,1.293163,-0.1988102
460033,1.317004,1.293163,-0.1988102
460036,1.343046,1.318934,-0.2027088
460038,1.343046,1.318934,-0.2027088
460041,1.386633,1.361713,-0.2102893
460043,1.397458,1.372733,-0.2112177
460046,1.397458,1.372733,-0.2112177
460048,1.419135,1.394233,-0.2130625
460051,1.355808,1.332514,-0.1978235
460053,1.355808,1.332514,-0.1978235
460056,1.26424,1.243483,-0.1758294
460058,1.26424,1.243483,-0.1758294
460061,1.195831,1.176862,-0.1594904
460063,1.094322,1.077563,-0.1356209
460066,1.094322,1.077563,-0.1356209
460068,1.056473,1.040799,-0.1266688
460071,0.9737772,0.960423,-0.1065312
460073,0.9737772,0.960423,-0.1065312
460077,0.9389946,0.926618,-0.09891172
460079,0.9389946,0.926618,-0.09891172
460082,0.8849231,0.8737969,-0.08622923
460084,0.8632076,0.8527163,-0.08156469
460087,0.8632076,0.8527163,-0.08156469
460089,0.8303944,0.8206762,-0.07401875
460092,0.8098756,0.7999081,-0.07132626
460094,0.8098756,0.7999081,-0.07132626
460097,0.8025945,0.7927822,-0.07401875
460099,0.8025945,0.7927822,-0.07401875
460102,0.7947544,0.7838463,-0.07661668
460104,0.7925354,0.7810954,-0.07661668
460106,0.7925354,0.7810954,-0.07661668
460109,0.7991739,0.7828471,-0.1027921
460111,0.8062432,0.7855918,-0.1219466
460114,0.8062432,0.7855918,-0.1219466
460116,0.825194,0.7945082,-0.1619255
460120,0.825194,0.7945082,-0.1619255
460122,0.8362648,0.7996635,-0.183454
460125,0.8517979,0.8052719,-0.2139789
460127,0.8517979,0.8052719,-0.2139789
460130,0.8638874,0.8120472,-0.2306999
460132,0.8802673,0.8199606,-0.2571706
460135,0.8802673,0.8199606,-0.2571706
460137,0.9153573,0.8476528,-0.2839303
460140,0.9153573,0.8476528,-0.2839303
460142,0.9276733,0.8568369,-0.2954137
460145,0.9087062,0.8464977,-0.2697954
460147,0.9087062,0.8464977,-0.2697954
460150,0.8800449,0.8294513,-0.2332305
460152,0.8593453,0.8175707,-0.2036718
460155,0.8593453,0.8175707,-0.2036718
460157,0.8280347,0.7977034,-0.1607126
460161,0.8280347,0.7977034,-0.1607126
460163,0.8118062,0.7870849,-0.1384764
460166,0.7883269,0.7717707,-0.1027921
460168,0.7883269,0.7717707,-0.1027921
460171,0.7798419,0.7661725,-0.08846933
460173,0.7798419,0.7661725,-0.08846933
460176,0.7654059,0.7558876,-0.0656106
460178,0.7638705,0.7556288,-0.05595291
460181,0.7638705,0.7556288,-0.05595291
460183,0.7592455,0.7532945,-0.04845664
460186,0.7625886,0.7579558,-0.03956468
460188,0.7625886,0.7579558,-0.03956468
460191,0.7628451,0.7587299,-0.03426402
460193,0.7628451,0.7587299,-0.03426402
460196,0.7610474,0.7571809,-0.03426402
460198,0.7595032,0.7556288,-0.03426402
460201,0.7595032,0.7556288,-0.03426402
460204,0.7620752,0.7582139,-0.03426402
460207,0.7620752,0.7587299,-0.02797646
460209,0.7620752,0.7587299,-0.02797646
460212,0.7618184,0.758472,-0.03426402
460214,0.7618184,0.758472,-0.03426402
460217,0.7610474,0.7576976,-0.02797646
460219,0.7597608,0.7566639,-0.02797646
460222,0.7597608,0.7566639,-0.02797646
460224,0.7589878,0.7558876,-0.02797646
460227,0.758472,0.7553698,-0.03426402
460229,0.758472,0.7553698,-0.03426402
460232,0.7574393,0.7543329,-0.03426402
460234,0.7574393,0.7543329,-0.03426402
460236,0.7551107,0.7517344,-0.03426402
460239,0.7501709,0.7470343,-0.02797646
460241,0.7501709,0.7470343,-0.02797646
460244,0.7486043,0.745461,-0.02797646
460247,0.745461,0.7420408,-0.03426402
460250,0.745461,0.7420408,-0.03426402
460252,0.7441474,0.7409853,-0.02797646
460255,0.7441474,0.7409853,-0.02797646
460257,0.7420408,0.7383398,-0.03426402
460260,0.7399282,0.7362165,-0.03426402
460262,0.7399282,0.7362165,-0.03426402
460265,0.7364823,0.7324861,-0.03956468
460267,0.7351527,0.7311491,-0.03426402
460270,0.7351527,0.7311491,-0.03426402
460272,0.7327532,0.7287365,-0.02797646
460275,0.7327532,0.7287365,-0.02797646
460277,0.733287,0.7295417,-0.03426402
460280,0.7335538,0.7295417,-0.03426402
460282,0.7335538,0.7295417,-0.03426402
460285,0.733287,0.7295417,-0.03426402
460288,0.7308815,0.7271236,-0.03426402
460291,0.7308815,0.7271236,-0.03426402
460293,0.7314168,0.7273927,-0.03426402
460296,0.7314168,0.7273927,-0.03426402
460298,0.7316842,0.7276617,-0.03426402
460301,0.7327532,0.7292733,-0.02797646
460303,0.7327532,0.7292733,-0.02797646
460306,0.7338206,0.7303458,-0.02797646
460308,0.7338206,0.7303458,-0.02797646
460311,0.7362165,0.7324861,-0.02797646
460313,0.7393991,0.7351527,-0.03956468
460316,0.7393991,0.7351527,-0.03956468
460318,0.7399282,0.7359507,-0.02797646
460321,0.7380747,0.7346201,-0.02797646
460323,0.7380747,0.7346201,-0.02797646
460326,0.7370135,0.7338206,-0.03956468
460328,0.7370135,0.7338206,-0.03956468
460332,0.7372789,0.7338206,-0.02797646
460334,0.7388696,0.7356848,-0.03956468
460337,0.7388696,0.7356848,-0.03956468
460339,0.7399282,0.7372789,-0.02797646
460342,0.7409853,0.7383398,-0.02797646
460344,0.7409853,0.7383398,-0.02797646
460347,0.7449358,0.741777,-0.02797646
460349,0.7449358,0.741777,-0.02797646
460352,0.7478197,0.7449358,-0.01978234
460354,0.7491269,0.7462481,-0.02797646
460357,0.7491269,0.7462481,-0.02797646
460359,0.7517344,0.7486043,-0.02797646
460362,0.7527748,0.749649,-0.02797646
460364,0.7527748,0.749649,-0.02797646
460366,0.7551107,0.7525149,0
460369,0.7551107,0.7525149,0
460371,0.7561465,0.7538139,-0.02797646
460375,0.7399282,0.7380747,-0.01978234
460377,0.7399282,0.7380747,-0.01978234
460380,0.7252374,0.7244276,-0.01978234
460382,0.7124436,0.7138155,0
460385,0.7124436,0.7138155,0
460387,0.7121689,0.7146374,0.01978234
460390,0.7121689,0.7146374,0.01978234
460392,0.7113441,0.7154584,0.03426402
460395,0.7388696,0.7433581,0.03956468
460397,0.7388696,0.7433581,0.03956468
460400,0.7491269,0.7535542,0.03956468
460402,0.7499101,0.7553698,0.04845664
460405,0.7499101,0.7553698,0.04845664
460407,0.7509531,0.7558876,0.05595291
460410,0.7509531,0.7558876,0.05595291
460412,0.7750598,0.7800927,0.05233916
460416,0.7840959,0.7895671,0.05233916
460418,0.7840959,0.7895671,0.05233916
460421,0.7745547,0.7798419,0.05934703
460423,0.7712635,0.776825,0.06255726
460426,0.7712635,0.776825,0.06255726
460428,0.7576976,0.7633579,0.07132626
460431,0.7576976,0.7633579,0.07132626
460433,0.7527748,0.758472,0.07401875
460436,0.7457234,0.7512136,0.07912937
460438,0.7457234,0.7512136,0.07912937
460441,0.7433581,0.7491269,0.08392937
460443,0.7433581,0.7491269,0.08392937
460446,0.7383398,0.7436213,0.09065409
460448,0.7364823,0.741777,0.08846933
460451,0.7364823,0.741777,0.08846933
460453,0.7438844,0.7491269,0.09278741
460456,0.7465102,0.7519946,0.09487279
460459,0.7465102,0.7519946,0.09487279
460462,0.7506924,0.7564052,0.09691329
460464,0.7506924,0.7564052,0.09691329
460467,0.7543329,0.7592455,0.09891172
460469,0.7730374,0.7785863,0.09065409
460472,0.7730374,0.7785863,0.09065409
460474,0.8025945,0.8079404,0.07912937
460477,0.804056,0.8093922,0.08156469
460479,0.804056,0.8093922,0.08156469
460482,0.806971,0.8122882,0.07912937
460484,0.806971,0.8122882,0.07912937
460487,0.8021067,0.8072135,0.08156469
460489,0.7954926,0.800886,0.08156469
460492,0.7954926,0.800886,0.08156469
460494,0.7679582,0.7732905,0.09891172
460496,0.7579558,0.7636142,0.1046783
460499,0.7579558,0.7636142,0.1046783
460502,0.7467723,0.7517344,0.1136409
460505,0.7467723,0.7517344,0.1136409
460507,0.7300779,0.7351527,0.1235407
460510,0.721179,0.7257769,0.1297215
460512,0.721179,0.7257769,0.1297215
460515,0.707759,0.7121689,0.1384764
460517,0.7019292,0.7058211,0.1412742
460520,0.7019292,0.7058211,0.1412742
460522,0.6935157,0.697174,0.1493534
460525,0.6935157,0.697174,0.1493534
460527,0.688134,0.6918207,0.1519511
460530,0.6807005,0.6838553,0.1557664
460532,0.6807005,0.6838553,0.1557664
460535,0.7022079,0.7058211,0.14537
460537,0.7225344,0.7271236,0.132704
460540,0.7225344,0.7271236,0.132704
460542,0.7396637,0.7446731,0.1219466
460546,0.7396637,0.7446731,0.1219466
460548,0.7324861,0.7375443,0.1251145
460551,0.7233464,0.7276617,0.1312212
460553,0.7233464,0.7276617,0.1312212
460556,0.717643,0.7222635,0.1341704
460558,0.7058211,0.7096917,0.1412742
460561,0.7058211,0.7096917,0.1412742
460563,0.6996954,0.7035998,0.1426525
460566,0.6996954,0.7035998,0.1426525
460568,0.6798376,0.6835691,0.1480375
460571,0.6676395,0.6711472,0.1506579
460573,0.6676395,0.6711472,0.1506579
460576,0.6437659,0.6464956,0.1570175
460578,0.6321102,0.6348901,0.1594904
460581,0.6321102,0.6348901,0.1594904
460583,0.6129363,0.6158028,0.1631294
460587,0.6129363,0.6158028,0.1631294
460589,0.5993783,0.6016592,0.166689
460592,0.5941319,0.5964329,0.1678588
460594,0.5941319,0.5964329,0.1678588
460597,0.5934729,0.5957764,0.1678588
460599,0.5934729,0.5957764,0.1678588
460602,0.5928131,0.5951191,0.1678588
460604,0.590498,0.5931431,0.165511
460607,0.590498,0.5931431,0.165511
460609,0.589503,0.5921526,0.166689
460612,0.5845029,0.5875081,0.165511
460614,0.5845029,0.5875081,0.165511
460617,0.5821548,0.5861744,0.1631294
460619,0.5821548,0.5861744,0.1631294
460622,0.5781073,0.5821548,0.1643245
460624,0.5764125,0.5801346,0.1643245
460626,0.5764125,0.5801346,0.1643245
460630,0.5716401,0.5757331,0.165511
460632,0.5716401,0.5757331,0.165511
460635,0.5716401,0.5757331,0.165511
460637,0.5716401,0.5757331,0.165511
460640,0.5716401,0.5757331,0.165511
460642,0.5682068,0.5726661,0.1631294
460645,0.563365,0.5682068,0.1631294
460647,0.563365,0.5682068,0.1631294
460650,0.5616257,0.5657911,0.1643245
460652,0.556375,0.5616257,0.1631294
460655,0.556375,0.5616257,0.1631294
460657,0.5549665,0.5598809,0.1631294
460660,0.5549665,0.5598809,0.1631294
460662,0.5549665,0.5602303,0.1643245
460665,0.555319,0.5612772,0.1643245
460667,0.555319,0.5612772,0.1643245
460670,0.569239,0.575053,0.1594904
460673,0.590498,0.5964329,0.1506579
460676,0.590498,0.5964329,0.1506579
460678,0.6013339,0.6071628,0.1480375
460681,0.6013339,0.6071628,0.1480375
460683,0.6177064,0.6230683,0.1412742
460686,0.628073,0.633656,0.1370561
460688,0.628073,0.633656,0.1370561
460691,0.6440698,0.6495153,0.132704
460693,0.6507192,0.6564078,0.1312212
460696,0.6507192,0.6564078,0.1312212
460698,0.661456,0.667053,0.1282043
460701,0.661456,0.667053,0.1282043
460703,0.6658786,0.6714388,0.1251145
460706,0.6726035,0.6783969,0.1235407
460708,0.6726035,0.6783969,0.1235407
460711,0.6746368,0.6798376,0.1251145
460713,0.6755064,0.6807005,0.1219466
460717,0.6755064,0.6807005,0.1219466
460719,0.6786853,0.6841414,0.1266688
460722,0.6786853,0.6841414,0.1266688
460724,0.6798376,0.6852845,0.1282043
460727,0.6827098,0.6887025,0.1282043
460729,0.6827098,0.6887025,0.1282043
460732,0.6847132,0.6898379,0.1297215
460734,0.6847132,0.6898379,0.1297215
460737,0.6901216,0.6957693,0.1312212
460739,0.6937978,0.6996954,0.1297215
460742,0.6937978,0.6996954,0.1297215
460744,0.7002546,0.7058211,0.1312212
460747,0.7055438,0.7107937,0.132704
460749,0.7055438,0.7107937,0.132704
460752,0.7083117,0.7138155,0.1312212
460754,0.7083117,0.7138155,0.1312212
460756,0.7107937,0.7160051,0.132704
460760,0.7146374,0.719821,0.1312212
460762,0.7146374,0.719821,0.1312212
460765,0.7173703,0.7228051,0.1297215
460767,0.7181882,0.7238871,0.1297215
460770,0.7181882,0.7238871,0.1297215
460772,0.7195491,0.7252374,0.1282043
460775,0.7195491,0.7252374,0.1282043
460777,0.717643,0.7236168,0.1266688
460780,0.7154584,0.7214502,0.1235407
460782,0.7154584,0.7214502,0.1235407
460785,0.7162784,0.7219925,0.1235407
460787,0.7165515,0.7222635,0.1203313
460790,0.7165515,0.7222635,0.1203313
460792,0.7168246,0.7228051,0.1203313
460795,0.7168246,0.7228051,0.1203313
460797,0.6841414,0.6901216,0.1282043
460801,0.6720214,0.6778198,0.1297215
460803,0.6720214,0.6778198,0.1297215
460806,0.6394964,0.645587,0.1370561
460808,0.6271377,0.6330382,0.1412742
460811,0.6271377,0.6330382,0.1412742
460813,0.6039315,0.6090934,0.1467098
460816,0.6039315,0.6090934,0.1467098
460818,0.5928131,0.598071,0.1506579
460821,0.5834977,0.5885065,0.1532334
460823,0.5834977,0.5885065,0.1532334
460826,0.5678623,0.5726661,0.1582588
460828,0.5616257,0.5661368,0.1607126
460831,0.5616257,0.5661368,0.1607126
460833,0.5528469,0.5570779,0.165511
460836,0.5528469,0.5570779,0.165511
460838,0.5500081,0.5535544,0.166689
460841,0.5457222,0.5492961,0.1713202
460844,0.5457222,0.5492961,0.1713202
460847,0.5442861,0.5478694,0.174713
460849,0.5685511,0.5733491,0.1631294
460852,0.5685511,0.5733491,0.1631294
460854,0.5901666,0.5954478,0.1506579
460857,0.5901666,0.5954478,0.1506579
460859,0.6227542,0.6293179,0.132704
460862,0.6000308,0.6061952,0.1412742
460864,0.6000308,0.6061952,0.1412742
460867,0.5914913,0.5964329,0.1570175
460869,0.5914913,0.5964329,0.1570175
460872,0.5993783,0.6036074,0.165511
460874,0.6065179,0.6100564,0.1713202
460877,0.6065179,0.6100564,0.1713202
460879,0.6065179,0.6100564,0.1678588
460882,0.6019843,0.6055493,0.1678588
460884,0.6019843,0.6055493,0.1678588
460887,0.5983981,0.6019843,0.1678588
460890,0.5983981,0.6019843,0.1678588
460892,0.5938025,0.5974163,0.1701742
460895,0.5928131,0.5957764,0.1713202
460897,0.5928131,0.5957764,0.1713202
460900,0.5921526,0.5954478,0.1713202
460902,0.5921526,0.5951191,0.1735894
460905,0.5921526,0.5951191,0.1735894
460907,0.5921526,0.5954478,0.1724585
460910,0.5921526,0.5954478,0.1724585
460912,0.590498,0.5947903,0.1735894
460915,0.5901666,0.5941319,0.1735894
460917,0.5901666,0.5941319,0.1735894
460920,0.5898349,0.5938025,0.1758294
460922,0.5898349,0.5938025,0.1758294
460925,0.5898349,0.5938025,0.1758294
460928,0.6071628,0.6106976,0.174713
460931,0.6071628,0.6106976,0.174713
460933,0.6135744,0.6173896,0.1735894
460936,0.6274496,0.6314908,0.1701742
460938,0.6274496,0.6314908,0.1701742
460941,0.6348901,0.6388841,0.1690205
460943,0.6467983,0.6504185,0.1678588
460946,0.6467983,0.6504185,0.1678588
460948,0.6558113,0.6590852,0.1678588
460951,0.6558113,0.6590852,0.1678588
460953,0.6581939,0.661456,0.1678588
460956,0.6599753,0.6638185,0.166689
460958,0.6599753,0.6638185,0.166689
460961,0.6632286,0.6667597,0.166689
460963,0.6658786,0.6693957,0.1690205
460966,0.6658786,0.6693957,0.1690205
460968,0.6685182,0.6723125,0.166689
460972,0.6685182,0.6723125,0.166689
460974,0.6728944,0.6766641,0.1643245
460977,0.6752167,0.6789736,0.1631294
460979,0.6752167,0.6789736,0.1631294
460982,0.6786853,0.6827098,0.1631294
460984,0.707759,0.7135413,0.1467098
460987,0.707759,0.7135413,0.1467098
460989,0.7538139,0.7600183,0.1251145
460992,0.7538139,0.7600183,0.1251145
460994,0.7720242,0.7783349,0.1186941
460997,0.7865875,0.7927822,0.1083524
460999,0.7865875,0.7927822,0.1083524
461002,0.7873334,0.7937689,0.1046783
461004,0.7873334,0.7937689,0.1046783
461007,0.7888232,0.7952467,0.1027921
461009,0.7935224,0.7999081,0.08622923
461012,0.7935224,0.7999081,0.08622923
461015,0.7967216,0.8028382,0.07401875
461017,0.8060005,0.8106001,0.04845664
461020,0.8060005,0.8106001,0.04845664
461022,0.8110828,0.8151737,0.03426402
461025,0.8110828,0.8151737,0.03426402
461027,0.8158936,0.8182884,0.01978234
461030,0.8170919,0.8182884,0
461032,0.8170919,0.8182884,0
461035,0.7957386,0.7972127,0
461037,0.7654059,0.7674484,0
461040,0.7654059,0.7674484,0
461042,0.7423044,0.7446731,0.01978234
461045,0.7423044,0.7446731,0.01978234
461047,0.7083117,0.7113441,0.02797646
461050,0.7074825,0.7102429,0.01978234
461052,0.7074825,0.7102429,0.01978234
461056,0.7060983,0.708588,0.01978234
461058,0.7058211,0.7080355,0.01978234
461061,0.7058211,0.7080355,0.01978234
461063,0.6832828,0.6864257,0.01978234
461066,0.6832828,0.6864257,0.01978234
461068,0.6755064,0.6781085,0.02797646
461071,0.6567059,0.6599753,0.03956468
461073,0.6567059,0.6599753,0.03956468
461076,0.649214,0.6528208,0.03426402
461078,0.661456,0.6644077,0.02797646
461081,0.661456,0.6644077,0.02797646
461083,0.6658786,0.6685182,0.02797646
461086,0.6626383,0.6658786,0.02797646
461088,0.6602717,0.6632286,0.02797646
461091,0.6702721,0.6728944,0.02797646
461093,0.6702721,0.6728944,0.02797646
461096,0.6798376,0.6821364,0.01978234
461099,0.6991359,0.7005339,0
461102,0.6991359,0.7005339,0
461104,0.707759,0.7088641,0
461107,0.707759,0.7088641,0
461109,0.7246976,0.7252374,0
461112,0.7327532,0.7327532,0
461114,0.7327532,0.7327532,0
461117,0.745461,0.7446731,0
461119,0.7506924,0.749649,-0.01978234
461122,0.7506924,0.749649,-0.01978234
461124,0.7592455,0.7582139,0
461127,0.7592455,0.7582139,0
461129,0.7631016,0.7615615,-0.01978234
461132,0.7689767,0.7669383,0
461134,0.7689767,0.7669383,0
461137,0.7712635,0.7694854,-0.02797646
461139,0.7712635,0.7694854,-0.02797646
461143,0.7750598,0.7730374,0
461145,0.7775803,0.7755645,0
461147,0.7775803,0.7755645,0
461150,0.7788376,0.776825,-0.02797646
461152,0.7818466,0.7803435,-0.02797646
461155,0.7818466,0.7803435,-0.02797646
461157,0.783097,0.7815963,0
461160,0.783097,0.7815963,0
461162,0.7853427,0.7838463,-0.02797646
461165,0.7863387,0.7845948,-0.02797646
461167,0.7863387,0.7845948,-0.02797646
461170,0.7810954,0.7798419,0
461172,0.7795909,0.7785863,0
461175,0.7795909,0.7785863,0
461177,0.782347,0.7808449,-0.02797646
461180,0.782347,0.7808449,-0.02797646
461182,0.7828471,0.7815963,0
461186,0.7850935,0.7835966,0
461188,0.7850935,0.7835966,0
461191,0.7858408,0.7843454,0
461193,0.7805943,0.7790887,0
461196,0.7805943,0.7790887,0
461198,0.7788376,0.7775803,0
461201,0.7788376,0.7775803,0
461203,0.7783349,0.776825,-0.02797646
461206,0.7785863,0.7773286,-0.02797646
461208,0.7785863,0.7773286,-0.02797646
461211,0.7793398,0.7775803,-0.02797646
461213,0.7798419,0.7780834,0
461216,0.7798419,0.7780834,0
461218,0.7815963,0.7793398,-0.02797646
461221,0.7815963,0.7793398,-0.02797646
461223,0.7838463,0.7818466,0
461227,0.7858408,0.7835966,-0.02797646
461229,0.7858408,0.7835966,-0.02797646
461232,0.7885751,0.7863387,-0.02797646
461234,0.7890712,0.7865875,-0.02797646
461237,0.7890712,0.7865875,-0.02797646
461239,0.7898148,0.7870849,-0.02797646
461242,0.7898148,0.7870849,-0.02797646
461244,0.7838463,0.7808449,-0.02797646
461247,0.7818466,0.7785863,-0.03956468
461249,0.7818466,0.7785863,-0.03956468
461252,0.7780834,0.7748073,-0.02797646
461254,0.7763211,0.7730374,-0.03956468
461257,0.7763211,0.7730374,-0.03956468
461259,0.7715172,0.7682129,-0.03956468
461262,0.7715172,0.7682129,-0.03956468
461264,0.7689767,0.7654059,-0.03956468
461267,0.7625886,0.7587299,-0.02797646
461270,0.7625886,0.7587299,-0.02797646
461273,0.7592455,0.7553698,-0.03426402
461275,0.7592455,0.7553698,-0.03426402
461278,0.7540734,0.7501709,-0.03956468
461280,0.7506924,0.7465102,-0.03426402
461282,0.7506924,0.7465102,-0.03426402
461285,0.7483428,0.7446731,-0.03426402
461287,0.745461,0.741777,-0.03956468
461290,0.745461,0.741777,-0.03956468
461292,0.7446731,0.7409853,-0.03956468
461295,0.7446731,0.7409853,-0.03956468
461297,0.7438844,0.7396637,-0.03426402
461300,0.7436213,0.7393991,-0.04423466
461302,0.7436213,0.7393991,-0.04423466
461305,0.742568,0.7380747,-0.03956468
461307,0.7423044,0.7380747,-0.03426402
461310,0.7423044,0.7380747,-0.03426402
461313,0.774302,0.7602757,-0.08846933
461316,0.774302,0.7602757,-0.08846933
461318,0.7868362,0.7689767,-0.1065312
461321,0.7994187,0.7785863,-0.1203313
461323,0.7994187,0.7785863,-0.1203313
461326,0.8045425,0.782347,-0.1266688
461328,0.8057577,0.7840959,-0.1251145
461331,0.8057577,0.7840959,-0.1251145
461333,0.8045425,0.7833468,-0.1219466
461336,0.8045425,0.7833468,-0.1219466
461338,0.8030819,0.7825971,-0.1203313
461341,0.798439,0.7790887,-0.1153499
461343,0.798439,0.7790887,-0.1153499
461346,0.7957386,0.776825,-0.1153499
461348,0.7922885,0.7740492,-0.1101434
461351,0.7922885,0.7740492,-0.1101434
461353,0.7917944,0.7740492,-0.1083524
461357,0.7917944,0.7740492,-0.1083524
461359,0.8060005,0.7885751,-0.1101434
461362,0.81781,0.8001527,-0.1119058
461364,0.81781,0.8001527,-0.1119058
461367,0.8425589,0.8249568,-0.1153499
461369,0.8550079,0.8376676,-0.1170339
461372,0.8550079,0.8376676,-0.1170339
461374,0.8744686,0.8568369,-0.1203313
461377,0.8744686,0.8568369,-0.1203313
461379,0.8822656,0.864793,-0.1219466
461382,0.8952556,0.8778186,-0.1219466
461384,0.8952556,0.8778186,-0.1219466
461387,0.8855863,0.8670527,-0.1282043
461389,0.8724523,0.8515682,-0.1370561
461392,0.8724523,0.8515682,-0.1370561
461394,0.873573,0.8527163,-0.1384764
461398,0.8744686,0.8534044,-0.1384764
461400,0.8755867,0.854092,-0.1398823
461403,0.8543211,0.8343908,-0.1297215
461405,0.8543211,0.8343908,-0.1297215
461408,0.8464977,0.8268523,-0.1266688
461410,0.8464977,0.8268523,-0.1266688
461412,0.8230571,0.8045425,-0.1186941
461415,0.8146936,0.7962303,-0.1170339
461417,0.8146936,0.7962303,-0.1170339
461420,0.7950006,0.7775803,-0.1101434
461422,0.7878303,0.7707559,-0.1065312
461425,0.7878303,0.7707559,-0.1065312
461427,0.8877931,0.8688563,-0.1266688
461430,0.8877931,0.8688563,-0.1266688
461432,0.9255615,0.9059024,-0.1341704
461435,0.9520329,0.9320924,-0.1384764
461437,0.9520329,0.9320924,-0.1384764
461441,0.963068,0.9427382,-0.1412742
461443,0.9379522,0.9164255,-0.1440177
461446,0.9379522,0.9164255,-0.1440177
461448,0.9295698,0.9076288,-0.1467098
461451,0.9295698,0.9076288,-0.1467098
461453,0.9011378,0.8780415,-0.1480375
461456,0.8917516,0.867955,-0.1493534
461458,0.8917516,0.867955,-0.1493534
461461,0.8697567,0.8448781,-0.1519511
461463,0.858434,0.8327476,-0.1532334
461466,0.858434,0.8327476,-0.1532334
461468,0.8270888,0.8001527,-0.1532334
461471,0.8270888,0.8001527,-0.1532334
461473,0.8093922,0.7815963,-0.1532334
461476,0.7727842,0.7444103,-0.1493534
461478,0.7727842,0.7444103,-0.1493534
461481,0.7399282,0.7107937,-0.1467098
461484,0.7372789,0.7080355,-0.14537
461487,0.7372789,0.7080355,-0.14537
461489,0.7319516,0.7027649,-0.1480375
461492,0.7319516,0.7027649,-0.1480375
461494,0.7225344,0.6929511,-0.1440177
461497,0.7066523,0.6775311,-0.1412742
461499,0.7066523,0.6775311,-0.1412742
461502,0.6982958,0.6691033,-0.1384764
461504,0.6847132,0.6555129,-0.1370561
461507,0.6847132,0.6555129,-0.1370561
461509,0.6792617,0.6501176,-0.1370561
461512,0.6792617,0.6501176,-0.1370561
461514,0.6909717,0.661456,-0.1398823
461517,0.7049889,0.6752167,-0.1440177
461519,0.7049889,0.6752167,-0.1440177
461522,0.7127182,0.6829963,-0.14537
461524,0.7184606,0.6887025,-0.14537
461528,0.7184606,0.6887025,-0.14537
461530,0.7319516,0.7024865,-0.1467098
461533,0.7319516,0.7024865,-0.1467098
461535,0.7401926,0.7107937,-0.1480375
461538,0.742568,0.7132671,-0.1480375
461540,0.742568,0.7132671,-0.1480375
461542,0.7483428,0.719005,-0.1506579
461545,0.7483428,0.719005,-0.1506579
461547,0.7512136,0.7217214,-0.1506579
461550,0.729005,0.6966124,-0.1582588
461552,0.729005,0.6966124,-0.1582588
461555,0.709416,0.6737661,-0.1643245
461557,0.6838553,0.645587,-0.1678588
461560,0.6838553,0.645587,-0.1678588
461562,0.6763749,0.6376578,-0.1678588
461565,0.6763749,0.6376578,-0.1678588
461568,0.6682253,0.6296288,-0.165511
461571,0.6644077,0.6262009,-0.1631294
461573,0.6644077,0.6262009,-0.1631294
461576,0.6620474,0.6236961,-0.1619255
461578,0.6617518,0.6246366,-0.1582588
461581,0.6617518,0.6246366,-0.1582588
461583,0.6617518,0.6246366,-0.1582588
461586,0.6617518,0.6246366,-0.1582588
461588,0.6617518,0.6246366,-0.1582588
461591,0.6483091,0.6081289,-0.1643245
461593,0.6483091,0.6081289,-0.1643245
461596,0.633656,0.590498,-0.1690205
461598,0.5961047,0.5539077,-0.1607126
461601,0.5961047,0.5539077,-0.1607126
461603,0.5747126,0.5352231,-0.1480375
461606,0.5747126,0.5352231,-0.1480375
461608,0.5403171,0.5051297,-0.1297215
461612,0.5151029,0.4845679,-0.1119058
461614,0.5151029,0.4845679,-0.1119058
461617,0.4751895,0.4511079,-0.08392937
461619,0.4889896,0.4652019,-0.08846933
461622,0.4889896,0.4652019,-0.08846933
461624,0.5066768,0.4829499,-0.08846933
461627,0.5066768,0.4829499,-0.08846933
461629,0.5428462,0.5169988,-0.1027921
461632,0.5549665,0.5286014,-0.1065312
461634,0.5549665,0.5286014,-0.1065312
461637,0.5861744,0.5612772,-0.1065312
461639,0.6327289,0.6097356,-0.1065312
461642,0.6327289,0.6097356,-0.1065312
461644,0.6599753,0.6382713,-0.1065312
461647,0.6599753,0.6382713,-0.1065312
461649,0.7049889,0.6858553,-0.1027921
461652,0.7236168,0.7052664,-0.1027921
461655,0.7236168,0.7052664,-0.1027921
461658,0.7522548,0.7348864,-0.1008706
461660,0.7628451,0.7459858,-0.1027921
461663,0.7628451,0.7459858,-0.1027921
461665,0.7795909,0.7631016,-0.1008706
461668,0.7795909,0.7631016,-0.1008706
461670,0.7162784,0.7041557,-0.07661668
461672,0.6218109,0.6158028,-0.03426402
461675,0.6218109,0.6158028,-0.03426402
461677,0.5944612,0.590498,-0.01978234
461680,0.5517841,0.5507192,0
461682,0.5517841,0.5507192,0
461685,0.5406791,0.5399548,0
461687,0.5406791,0.5399548,0
461690,0.5218958,0.5222706,0
461692,0.518133,0.5192646,0.01978234
461696,0.518133,0.5192646,0.01978234
461698,0.509757,0.5116726,0.01978234
461701,0.509757,0.5116726,0.01978234
461703,0.509757,0.5116726,0.02797646
461706,0.5070629,0.5093729,0.01978234
461708,0.5070629,0.5093729,0.01978234
461711,0.5062904,0.5082192,0.02797646
461713,0.5047422,0.5066768,0.01978234
461716,0.5047422,0.5066768,0.01978234
461718,0.5047422,0.5062904,0.01978234
461721,0.5047422,0.5062904,0.01978234
461723,0.5051297,0.5066768,0.01978234
461726,0.5055169,0.5070629,0.01978234
461728,0.5055169,0.5070629,0.01978234
461731,0.5051297,0.5066768,0.01978234
461733,0.5039662,0.5051297,0.01978234
461736,0.5039662,0.5051297,0.01978234
461739,0.5031891,0.5043544,0.01978234
461742,0.5031891,0.5043544,0.01978234
461744,0.5004597,0.5016313,0.01978234
461747,0.4988932,0.4996771,0.01978234
461749,0.4988932,0.4996771,0.01978234
461752,0.4985009,0.4996771,0.02797646
461754,0.4988932,0.5000685,0.02797646
461757,0.4988932,0.5000685,0.02797646
461759,0.4996771,0.5008504,0
461762,0.4996771,0.5008504,0
461764,0.4988932,0.5004597,0.01978234
461767,0.4988932,0.5000685,0.01978234
461769,0.4988932,0.5000685,0.01978234
461772,0.4969283,0.4981082,0.01978234
461774,0.4973219,0.4988932,0.01978234
461777,0.4973219,0.4988932,0.01978234
461779,0.4961402,0.4977152,0.01978234
461783,0.4961402,0.4977152,0.01978234
461785,0.4973219,0.4992853,0.02797646
461788,0.4985009,0.5008504,0.01978234
461790,0.4985009,0.5008504,0.01978234
461793,0.4985009,0.5008504,0.01978234
461795,0.5000685,0.5028,0.03426402
461798,0.5000685,0.5028,0.03426402
461800,0.5024107,0.5051297,0.02797646
461802,0.5024107,0.5051297,0.02797646
461805,0.5047422,0.5066768,0.02797646
461807,0.508604,0.5109072,0.02797646
461810,0.508604,0.5109072,0.02797646
461812,0.5101407,0.5128186,0.02797646
461815,0.5143426,0.5169988,0
461817,0.5143426,0.5169988,0
461820,0.5154827,0.5185105,0.02797646
461822,0.5154827,0.5185105,0.02797646
461826,0.5200178,0.5226451,0.02797646
461828,0.5222706,0.5248867,0.02797646
461831,0.5222706,0.5248867,0.02797646
461833,0.5271187,0.5289715,0.02797646
461836,0.5271187,0.5289715,0.02797646
461838,0.5293413,0.5311863,0.02797646
461841,0.5315546,0.533025,0
461843,0.5315546,0.533025,0
461846,0.5322903,0.5337587,0
461848,0.5322903,0.5341251,0.02797646
461851,0.5322903,0.5341251,0.02797646
461853,0.5322903,0.5341251,0
461856,0.5322903,0.5341251,0
461858,0.5322903,0.533392,0
461861,0.5293413,0.5308178,0
461863,0.5293413,0.5308178,0
461867,0.5260038,0.5274898,0
461869,0.5245137,0.5263757,0
461872,0.5245137,0.5263757,0
461874,0.5211454,0.5222706,0
461877,0.5211454,0.5222706,0
461879,0.5185105,0.5203939,0.02797646
461882,0.5147229,0.5162413,0.01978234
461884,0.5147229,0.5162413,0.01978234
461887,0.5128186,0.5147229,0.01978234
461889,0.5093729,0.5112901,0.01978234
461892,0.5093729,0.5112901,0.01978234
461894,0.508604,0.5105241,0
461897,0.508604,0.5105241,0
461899,0.5074486,0.5089886,0.02797646
461902,0.5051297,0.5070629,0
461904,0.5051297,0.5070629,0
461907,0.5020211,0.5043544,0.02797646
461910,0.5004597,0.5020211,0.02797646
461913,0.5004597,0.5020211,0.02797646
461915,0.4969283,0.4988932,0.03426402
461918,0.4969283,0.4988932,0.03426402
461920,0.4941643,0.4965344,0.03426402
461923,0.4925778,0.4949555,0.02797646
461925,0.4925778,0.4949555,0.02797646
461928,0.4909863,0.4945601,0.01978234
461930,0.4909863,0.4933717,0.03426402
461932,0.4909863,0.4933717,0.03426402
461935,0.4893896,0.4917827,0.03426402
461937,0.4893896,0.4917827,0.03426402
461940,0.4877876,0.4905876,0.02797646
461942,0.4885893,0.4913847,0.02797646
461945,0.4885893,0.4913847,0.02797646
461947,0.4893896,0.4921804,0.03426402
461950,0.4897892,0.4921804,0.03426402
461953,0.4897892,0.4921804,0.03426402
461956,0.4893896,0.4921804,0.03426402
461958,0.4893896,0.4921804,0.03426402
461961,0.4893896,0.4921804,0.02797646
461963,0.4905876,0.4925778,0.03426402
461966,0.4905876,0.4925778,0.03426402
461968,0.4909863,0.4933717,0.03426402
461971,0.4909863,0.4933717,0.03426402
461973,0.4913847,0.4937682,0.03426402
461976,0.4921804,0.4949555,0.02797646
461978,0.4921804,0.4949555,0.02797646
461981,0.4925778,0.4949555,0.02797646
461983,0.4929749,0.4953507,0.02797646
461986,0.4929749,0.4953507,0.02797646
461988,0.4937682,0.4957456,0.02797646
461991,0.4937682,0.4957456,0.02797646
461993,0.4941643,0.4953507,0.02797646
461997,0.4941643,0.4957456,0.01978234
461999,0.4941643,0.4957456,0.01978234
462002,0.4937682,0.4957456,0.01978234
462004,0.4929749,0.4953507,0
462007,0.4929749,0.4953507,0
462009,0.4941643,0.4957456,0.02797646
462012,0.4941643,0.4957456,0.02797646
462014,0.4941643,0.4957456,0.02797646
462017,0.4969283,0.4981082,0.01978234
462019,0.4969283,0.4981082,0.01978234
462022,0.4977152,0.4992853,0
462024,0.5004597,0.5016313,0.02797646
462027,0.5004597,0.5016313,0.02797646
462029,0.5016313,0.5031891,0.01978234
462032,0.5016313,0.5031891,0.01978234
462034,0.5043544,0.5062904,0
462038,0.5059038,0.5070629,0.01978234
462040,0.5059038,0.5070629,0.01978234
462043,0.5066768,0.5082192,0.01978234
462045,0.5062904,0.5074486,0.01978234
462048,0.5062904,0.5074486,0.01978234
462050,0.5059038,0.5070629,0.01978234
462053,0.5059038,0.5070629,0.01978234
462055,0.5059038,0.5070629,0.01978234
462058,0.5055169,0.5066768,0
462060,0.5055169,0.5066768,0
462062,0.5059038,0.5070629,0.01978234
462065,0.5059038,0.5078341,0.02797646
462067,0.5059038,0.5078341,0.02797646
462070,0.5055169,0.5074486,0
462072,0.5055169,0.5074486,0
462075,0.5051297,0.5070629,0
462077,0.5043544,0.5059038,0
462081,0.5043544,0.5059038,0
462083,0.5047422,0.5055169,0
462086,0.5043544,0.5051297,0.02797646
462088,0.5043544,0.5051297,0.02797646
462091,0.5039662,0.5051297,0
462093,0.5039662,0.5051297,0
462096,0.5031891,0.5039662,0.01978234
462098,0.5016313,0.5028,0
462101,0.5016313,0.5028,0
462103,0.5016313,0.5024107,0.01978234
462106,0.5016313,0.5024107,0.01978234
462108,0.5004597,0.5016313,0
462111,0.4996771,0.5008504,0
462113,0.4996771,0.5008504,0
462116,0.4992853,0.5000685,0
462118,0.4969283,0.4981082,0.01978234
462121,0.4969283,0.4981082,0.01978234
462124,0.4957456,0.4977152,0.01978234
462127,0.4957456,0.4977152,0.01978234
462129,0.4953507,0.4965344,0.02797646
462132,0.4933717,0.4949555,0
462134,0.4933717,0.4949555,0
462137,0.4937682,0.4957456,0.01978234
462139,0.4949555,0.4961402,0
462142,0.4949555,0.4961402,0
462144,0.4953507,0.4973219,0
462147,0.4953507,0.4973219,0
462149,0.4961402,0.4973219,0.02797646
462152,0.5252593,0.5248867,0
462154,0.5252593,0.5248867,0
462157,0.5695826,0.5664824,-0.01978234
462159,0.5215207,0.5200178,0
462162,0.5215207,0.5200178,0
462164,0.4813265,0.4821389,0
462168,0.4813265,0.4821389,0
462170,0.4414621,0.4436728,0.02797646
462173,0.4352126,0.4379019,0.03426402
462175,0.4352126,0.4379019,0.03426402
462178,0.4297835,0.4329587,0.04845664
462180,0.4396856,0.4427898,0.04423466
462183,0.4396856,0.4427898,0.04423466
462185,0.4484978,0.4515415,0.03956468
462188,0.4484978,0.4515415,0.03956468
462190,0.454995,0.4579955,0.03426402
462192,0.4652019,0.4673002,0.03426402
462195,0.4652019,0.4673002,0.03426402
462197,0.4689721,0.4710537,0.02797646
462200,0.4714689,0.4735395,0.01978234
462202,0.4714689,0.4735395,0.01978234
462205,0.4764233,0.4784724,0.01978234
462208,0.4764233,0.4784724,0.01978234
462211,0.4837596,0.4853748,0.01978234
462213,0.4865827,0.4885893,0.01978234
462216,0.4865827,0.4885893,0.01978234
462218,0.4897892,0.4913847,0.02797646
462221,0.4913847,0.4929749,0.02797646
462223,0.4913847,0.4929749,0.02797646
462226,0.4949555,0.4969283,0.01978234
462228,0.4949555,0.4969283,0.01978234
462231,0.4969283,0.4988932,0.02797646
462233,0.4992853,0.501241,0.02797646
462236,0.4992853,0.501241,0.02797646
462238,0.501241,0.5031891,0.02797646
462241,0.501241,0.5031891,0.02797646
462243,0.5024107,0.5043544,0.02797646
462246,0.5035778,0.5055169,0.02797646
462248,0.5035778,0.5055169,0.02797646
462252,0.5066768,0.5093729,0.02797646
462254,0.508604,0.5112901,0.02797646
462257,0.508604,0.5112901,0.02797646
462259,0.5101407,0.5128186,0.03426402
462262,0.5101407,0.5128186,0.03426402
462264,0.5112901,0.513962,0.02797646
462267,0.5116726,0.5147229,0.03426402
462269,0.5116726,0.5147229,0.03426402
462272,0.5135812,0.5166202,0.03426402
462274,0.5147229,0.5177552,0.02797646
462277,0.5147229,0.5177552,0.02797646
462279,0.5192646,0.5218958,0.02797646
462282,0.5192646,0.5218958,0.02797646
462284,0.5207698,0.5230194,0.02797646
462287,0.5215207,0.5241405,0.03426402
462289,0.5215207,0.5241405,0.03426402
462292,0.5218958,0.5248867,0.02797646
462295,0.5271187,0.53008,0.02797646
462298,0.5271187,0.53008,0.02797646
462300,0.5289715,0.5319225,0.03426402
462303,0.5289715,0.5319225,0.03426402
462305,0.53008,0.5326577,0.03956468
462308,0.5315546,0.5341251,0.03956468
462310,0.5315546,0.5341251,0.03956468
462313,0.5348573,0.5377761,0.03426402
462315,0.5359538,0.5392296,0.02797646
462318,0.5359538,0.5392296,0.02797646
462320,0.5377761,0.5406791,0.02797646
462322,0.5377761,0.5406791,0.02797646
462325,0.5377761,0.5410409,0.02797646
462327,0.5399548,0.5424856,0.03956468
462330,0.5399548,0.5424856,0.03956468
462332,0.5403171,0.5432066,0.03426402
462336,0.5395923,0.5421248,0.03426402
462338,0.5395923,0.5421248,0.03426402
462341,0.5388666,0.5417637,0.03956468
462343,0.5388666,0.5417637,0.03956468
462346,0.5403171,0.5428462,0.02797646
462348,0.5410409,0.5432066,0.03426402
462351,0.5410409,0.5432066,0.03426402
462353,0.5471546,0.5503638,0.02797646
462356,0.5492961,0.5517841,0.03426402
462358,0.5492961,0.5517841,0.03426402
462361,0.5492961,0.5524929,0.03426402
462363,0.5492961,0.5524929,0.03426402
462366,0.5492961,0.5521386,0.03426402
462368,0.5500081,0.5535544,0.03426402
462371,0.5500081,0.5535544,0.03426402
462373,0.5514293,0.5542608,0.03426402
462376,0.5514293,0.5542608,0.03426402
462379,0.5489398,0.5524929,0.03426402
462382,0.5467969,0.5496522,0.03956468
462384,0.5467969,0.5496522,0.03956468
462387,0.5464389,0.5496522,0.03956468
462389,0.5467969,0.5503638,0.03956468
462392,0.5467969,0.5503638,0.03956468
462394,0.5482264,0.5517841,0.03956468
462397,0.5482264,0.5517841,0.03956468
462399,0.5507192,0.5542608,0.03956468
462402,0.5532007,0.5567266,0.03956468
462404,0.5532007,0.5567266,0.03956468
462407,0.5570779,0.5609285,0.04423466
462409,0.5591815,0.5626699,0.04423466
462412,0.5591815,0.5626699,0.04423466
462414,0.5616257,0.5650989,0.04423466
462417,0.5616257,0.5650989,0.04423466
462419,0.5661368,0.5699261,0.04423466
462423,0.5733491,0.577091,0.03956468
462425,0.5733491,0.577091,0.03956468
462428,0.5787839,0.5821548,0.04423466
462430,0.5858405,0.589503,0.04423466
462433,0.5858405,0.589503,0.04423466
462435,0.5908293,0.5944612,0.03956468
462438,0.5908293,0.5944612,0.03956468
462440,0.5983981,0.6019843,0.04423466
462443,0.6058724,0.6097356,0.04423466
462445,0.6058724,0.6097356,0.04423466
462448,0.6170725,0.6205508,0.04423466
462450,0.6218109,0.6255757,0.03956468
462452,0.6218109,0.6255757,0.03956468
462455,0.6293179,0.6327289,0.04423466
462457,0.6293179,0.6327289,0.04423466
462460,0.6330382,0.6364292,0.03956468
462462,0.6385778,0.6422443,0.03956468
462466,0.6385778,0.6422443,0.03956468
462468,0.6407191,0.6440698,0.03956468
462471,0.6437659,0.6467983,0.03956468
462473,0.6437659,0.6467983,0.03956468
462476,0.6443735,0.6477052,0.03956468
462478,0.6443735,0.6477052,0.03956468
462481,0.6449805,0.6480073,0.03426402
462483,0.6452838,0.6483091,0.03426402
462486,0.6452838,0.6483091,0.03426402
462488,0.6437659,0.6464956,0.03426402
462491,0.6398023,0.6428534,0.03426402
462493,0.6398023,0.6428534,0.03426402
462496,0.6379647,0.6407191,0.03426402
462498,0.6379647,0.6407191,0.03426402
462501,0.6355062,0.6385778,0.02797646
462503,0.6274496,0.63025,0.03426402
462507,0.6274496,0.63025,0.03426402
462509,0.6227542,0.6249498,0.02797646
462512,0.6227542,0.6249498,0.02797646
462514,0.6208661,0.6236961,0.01978234
462517,0.6177064,0.6199199,0.01978234
462519,0.6177064,0.6199199,0.01978234
462522,0.6161205,0.6177064,0
462524,0.612617,0.6138933,0
462527,0.612617,0.6138933,0
462529,0.6113381,0.6122975,0
462532,0.6113381,0.6122975,0
462534,0.6081289,0.6084505,0.01978234
462537,0.6061952,0.6068404,0
462539,0.6061952,0.6068404,0
462542,0.6039315,0.6039315,0
462544,0.6023093,0.6029587,0
462547,0.6023093,0.6029587,0
462550,0.6016592,0.6013339,0
462553,0.6016592,0.6013339,0
462555,0.6010084,0.6010084,0
462558,0.5997046,0.598725,0
462560,0.5997046,0.598725,0
462563,0.5990517,0.5974163,0
462565,0.5997046,0.598071,0
462568,0.5997046,0.598071,0
462570,0.6016592,0.5993783,0
462573,0.6016592,0.5993783,0
462575,0.6032831,0.6006827,0
462578,0.6026341,0.5997046,0
462580,0.6026341,0.5997046,0
462583,0.6032831,0.6006827,-0.01978234
462585,0.6045791,0.6013339,-0.01978234
462587,0.6045791,0.6013339,-0.01978234
462590,0.6065179,0.6036074,0
462593,0.6065179,0.6036074,0
462596,0.6065179,0.6036074,0
462598,0.6065179,0.6036074,0
462601,0.6065179,0.6036074,0
462603,0.6135744,0.6103771,-0.01978234
462606,0.616438,0.6129363,-0.01978234
462608,0.616438,0.6129363,-0.01978234
462611,0.6240098,0.6208661,-0.01978234
462613,0.6240098,0.6208661,-0.01978234
462616,0.6268256,0.6236961,0
462618,0.6339648,0.6311808,-0.01978234
462621,0.6339648,0.6311808,-0.01978234
462623,0.6364292,0.633656,-0.01978234
462626,0.6428534,0.6416347,0
462628,0.6428534,0.6416347,0
462631,0.645587,0.6434618,0
462633,0.645587,0.6434618,0
462637,0.6480073,0.6467983,0
462639,0.6516207,0.6501176,-0.01978234
462642,0.6516207,0.6501176,-0.01978234
462644,0.651921,0.6513204,0
462647,0.651921,0.6513204,0
462649,0.652521,0.651921,0
462652,0.6531205,0.652521,0
462654,0.6531205,0.652521,0
462657,0.6546168,0.6540186,0
462659,0.65342,0.6531205,0
462662,0.65342,0.6531205,0
462664,0.651921,0.6516207,0
462667,0.651921,0.6516207,0
462669,0.6528208,0.6528208,0
462672,0.6537194,0.6540186,0
462674,0.6537194,0.6540186,0
462678,0.652221,0.6528208,0
462680,0.6501176,0.6510199,0
462683,0.6501176,0.6510199,0
462685,0.6480073,0.6483091,0.01978234
462688,0.6480073,0.6483091,0.01978234
462690,0.6443735,0.6449805,0
462693,0.6394964,0.6398023,0
462695,0.6394964,0.6398023,0
462698,0.6355062,0.635814,0
462700,0.6224399,0.6233823,0
462703,0.6224399,0.6233823,0
462705,0.6084505,0.6094146,0.01978234
462708,0.6084505,0.6094146,0.01978234
462710,0.6000308,0.6010084,0
462713,0.5875081,0.5891711,0
