time,turnedAngle,pitchAngle,yawAngle
126,0,0,0
2768130,0,0,0
2768121,0,0,0
2768123,0,0,0
2768126,0,0,0
2768130,0,0,0
2768135,0,0,0
2768137,0,0,0
2768140,0,0,0
2768142,0,0,0
2768145,0,0,0
2768148,0,0,0
2768150,0,0,0
2768153,0,0,0
2768155,0,0,0
2768158,0,0,0
2768160,0,0,0
2768163,0,0,0
2768166,0,0,0
2768168,0,0,0
2768172,0,0,0
2768174,0,0,0
2768177,0,0,0
2768179,0,0,0
2768182,0,0,0
2768185,0,0,0
2768187,0,0,0
2768190,0,0,0
2768192,0,0,0
2768195,0,0,0
2768197,0,0,0
2768200,0,0,0
2768203,0,0,0
2768205,0,0,0
2768208,0,0,0
2768210,0,0,0
2768214,0,0,0
2768216,0,0,0
2768219,0,0,0
2768222,0,0,0
2768224,0,0,0
2768227,0,0,0
2768229,0,0,0
2768232,0,0,0
2768234,0,0,0
2768237,0,0,0
2768240,0,0,0
2768242,0,0,0
2768245,0,0,0
2768247,0,0,0
2768250,0,0,0
2768252,0,0,0
2768256,0,0,0
2768259,0,0,0
2768261,0,0,0
2768264,0,0,0
2768266,0,0,0
2768269,0,0,0
2768272,0,0,0
2768274,0,0,0
2768277,0,0,0
2768279,0,0,0
2768282,0,0,0
2768284,0,0,0
2768287,0,0,0
2768290,0,0,0
2768292,0,0,0
2768295,0,0,0
2768297,0,0,0
2768301,0,0,0
2768303,0,0,0
2768306,0,0,0
2768309,0,0,0
2768311,0,0,0
2768314,0,0,0
2768316,0,0,0
2768319,0,0,0
2768321,0,0,0
2768324,0,0,0
2768327,0,0,0
2768329,0,0,0
2768332,0,0,0
2768334,0,0,0
2768337,0,0,0
2768339,0,0,0
2768343,0,0,0
2768346,0,0,0
2768348,0,0,0
2768351,0,0,0
2768353,0,0,0
2768356,0,0,0
2768358,0,0,0
2768361,0,0,0
2768364,0,0,0
2768366,0,0,0
2768369,0,0,0
2768371,0,0,0
2768374,0,0,0
2768376,0,0,0
2768379,0,0,0
2768382,0,0,0
2768385,0,0,0
2768388,0,0,0
2768390,0,0,0
2768393,0,0,0
2768395,0,0,0
2768398,0,0,0
2768401,0,0,0
2768403,0,0,0
2768406,0,0,0
2768408,0,0,0
2768411,0,0,0
2768413,0,0,0
2768416,0,0,0
2768419,0,0,0
2768421,0,0,0
2768424,0,0,0
2768427,0,0,0
2768430,0,0,0
2768432,0,0,0
2768435,0,0,0
2768438,0,0,0
2768440,0,0,0
2768443,0,0,0
2768445,0,0,0
2768448,0,0,0
2768450,0,0,0
2768453,0,0,0
2768456,0,0,0
2768458,0,0,0
2768461,0,0,0
2768463,0,0,0
2768466,0,0,0
2768468,0,0,0
2768472,0,0,0
2768475,0,0,0
2768477,0,0,0
2768480,0,0,0
2768482,0,0,0
2768485,0,0,0
2768488,0,0,0
2768490,0,0,0
2768493,0,0,0
2768495,0,0,0
2768498,0,0,0
2768500,0,0,0
2768503,0,0,0
2768506,0,0,0
2768508,0,0,0
2768512,0,0,0
2768514,0,0,0
2768517,0,0,0
2768519,0,0,0
2768522,0,0,0
2768525,0,0,0
2768527,0,0,0
2768530,0,0,0
2768532,0,0,0
2768535,0,0,0
2768537,0,0,0
2768540,0,0,0
2768543,0,0,0
2768545,0,0,0
2768548,0,0,0
2768550,0,0,0
2768553,0,0,0
2768556,0,0,0
2768559,0,0,0
2768562,0,0,0
2768564,0,0,0
2768567,0,0,0
2768569,0,0,0
2768572,0,0,0
2768574,0,0,0
2768577,0,0,0
2768580,0,0,0
2768582,0,0,0
2768585,0,0,0
2768587,0,0,0
2768590,0,0,0
2768592,0,0,0
2768595,0,0,0
2768599,0,0,0
2768601,0,0,0
2768604,0,0,0
2768606,0,0,0
2768609,0,0,0
2768611,0,0,0
2768614,0,0,0
2768617,0,0,0
2768619,0,0,0
2768622,0,0,0
2768624,0,0,0
2768627,0,0,0
2768629,0,0,0
2768632,0,0,0
2768635,0,0,0
2768637,0,0,0
2768641,0,0,0
2768643,0,0,0
2768646,0,0,0
2768648,0,0,0
2768651,0,0,0
2768654,0,0,0
2768656,0,0,0
2768659,0,0,0
2768661,0,0,0
2768664,0,0,0
2768666,0,0,0
2768669,0,0,0
2768672,0,0,0
2768674,0,0,0
2768677,0,0,0
2768679,0,0,0
2768683,0,0,0
2768686,0,0,0
2768688,0,0,0
2768691,0,0,0
2768693,0,0,0
2768696,0,0,0
2768698,0,0,0
2768701,0,0,0
2768704,0,0,0
2768706,0,0,0
2768709,0,0,0
2768711,0,0,0
2768714,0,0,0
2768716,0,0,0
2768719,0,0,0
2768722,0,0,0
2768724,0,0,0
2768728,0,0,0
2768730,0,0,0
2768733,0,0,0
2768735,0,0,0
2768738,0,0,0
2768741,0,0,0
2768743,0,0,0
2768746,0,0,0
2768748,0,0,0
2768751,0,0,0
2768753,0,0,0
2768756,0,0,0
2768759,0,0,0
2768761,0,0,0
2768764,0,0,0
2768766,0,0,0
2768770,0,0,0
2768772,0,0,0
2768775,0,0,0
2768778,0,0,0
2768780,0,0,0
2768783,0,0,0
2768785,0,0,0
2768788,0,0,0
2768790,0,0,0
2768793,0,0,0
2768796,0,0,0
2768798,0,0,0
2768801,0,0,0
2768803,0,0,0
2768806,0,0,0
2768808,0,0,0
2768812,0,0,0
2768815,0,0,0
2768817,0,0,0
2768820,0,0,0
2768822,0,0,0
2768825,0,0,0
2768827,0,0,0
2768830,0,0,0
2768833,0,0,0
2768835,0,0,0
2768838,0,0,0
2768840,0,0,0
2768843,0,0,0
2768845,0,0,0
2768848,0,0,0
2768851,0,0,0
2768854,0,0,0
2768857,0,0,0
2768859,0,0,0
2768862,0,0,0
2768864,0,0,0
2768867,0,0,0
2768870,0,0,0
2768872,0,0,0
2768875,0,0,0
2768877,0,0,0
2768880,0,0,0
2768882,0,0,0
2768885,0,0,0
2768888,0,0,0
2768890,0,0,0
2768893,0,0,0
2768896,0,0,0
2768899,0,0,0
2768902,0,0,0
2768904,0,0,0
2768907,0,0,0
2768909,0,0,0
2768912,0,0,0
2768914,0,0,0
2768917,0,0,0
2768920,0,0,0
2768922,0,0,0
2768925,0,0,0
2768927,0,0,0
2768930,0,0,0
2768932,0,0,0
2768935,0,0,0
2768939,0,0,0
2768941,0,0,0
2768944,0,0,0
2768946,0,0,0
2768949,0,0,0
2768951,0,0,0
2768954,0,0,0
2768957,0,0,0
2768959,0,0,0
2768962,0,0,0
2768964,0,0,0
2768967,0,0,0
2768969,0,0,0
2768972,0,0,0
2768975,0,0,0
2768977,0,0,0
2768980,0,0,0
2768983,0,0,0
2768986,0,0,0
2768988,0,0,0
2768991,0,0,0
2768994,0,0,0
2768996,0,0,0
2768999,0,0,0
2769001,0,0,0
2769004,0,0,0
2769006,0,0,0
2769009,0,0,0
2769012,0,0,0
2769014,0,0,0
2769017,0,0,0
2769019,0,0,0
2769022,0,0,0
2769025,0,0,0
2769028,0,0,0
2769031,0,0,0
2769033,0,0,0
2769036,0,0,0
2769038,0,0,0
2769041,0,0,0
2769043,0,0,0
2769046,0,0,0
2769049,0,0,0
2769051,0,0,0
2769054,0,0,0
2769056,0,0,0
2769059,0,0,0
2769061,0,0,0
2769064,0,0,0
2769068,0,0,0
2769070,0,0,0
2769073,0,0,0
2769075,0,0,0
2769078,0,0,0
2769080,0,0,0
2769083,0,0,0
2769086,0,0,0
2769088,0,0,0
2769091,0,0,0
2769093,0,0,0
2769096,0,0,0
2769099,0,0,0
2769101,0,0,0
2769104,0,0,0
2769106,0,0,0
2769110,0,0,0
2769112,0,0,0
2769115,0,0,0
2769118,0,0,0
2769120,0,0,0
2769123,0,0,0
2769125,0,0,0
2769128,0,0,0
2769130,0,0,0
2769133,0,0,0
2769136,0,0,0
2769138,0,0,0
2769141,0,0,0
2769143,0,0,0
2769146,0,0,0
2769148,0,0,0
2769152,0,0,0
2769155,0,0,0
2769157,0,0,0
2769160,0,0,0
2769162,0,0,0
2769165,0,0,0
2769167,0,0,0
2769170,0,0,0
2769173,0,0,0
2769175,0,0,0
2769178,0,0,0
2769180,0,0,0
2769183,0,0,0
2769185,0,0,0
2769188,0,0,0
2769191,0,0,0
2769193,0,0,0
2769197,0,0,0
2769199,0,0,0
2769202,0,0,0
2769204,0,0,0
2769207,0,0,0
2769210,0,0,0
2769212,0,0,0
2769215,0,0,0
2769217,0,0,0
2769220,0,0,0
2769222,0,0,0
2769225,0,0,0
2769228,0,0,0
2769230,0,0,0
2769233,0,0,0
2769235,0,0,0
2769239,0,0,0
2769241,0,0,0
2769244,0,0,0
2769247,0,0,0
2769249,0,0,0
2769252,0,0,0
2769254,0,0,0
2769257,0,0,0
2769259,0,0,0
2769262,0,0,0
2769265,0,0,0
2769267,0,0,0
2769270,0,0,0
2769272,0,0,0
2769275,0,0,0
2769277,0,0,0
2769281,0,0,0
2769284,0,0,0
2769286,0,0,0
2769289,0,0,0
2769291,0,0,0
2769294,0,0,0
2769296,0,0,0
2769299,0,0,0
2769302,0,0,0
2769304,0,0,0
2769307,0,0,0
2769309,0,0,0
2769312,0,0,0
2769315,0,0,0
2769317,0,0,0
2769320,0,0,0
2769323,0,0,0
2769326,0,0,0
2769328,0,0,0
2769331,0,0,0
2769334,0,0,0
2769336,0,0,0
2769339,0,0,0
2769341,0,0,0
2769344,0,0,0
2769346,0,0,0
2769349,0,0,0
2769352,0,0,0
2769354,0,0,0
2769357,0,0,0
2769359,0,0,0
2769362,0,0,0
2769364,0,0,0
2769368,0,0,0
2769371,0,0,0
2769373,0,0,0
2769376,0,0,0
2769378,0,0,0
2769381,0,0,0
2769383,0,0,0
2769386,0,0,0
2769389,0,0,0
2769391,0,0,0
2769394,0,0,0
2769396,0,0,0
2769399,0,0,0
2769401,0,0,0
2769404,0,0,0
2769408,0,0,0
2769410,0,0,0
2769413,0,0,0
2769415,0,0,0
2769418,0,0,0
2769420,0,0,0
2769423,0,0,0
2769426,0,0,0
2769428,0,0,0
2769431,0,0,0
2769433,0,0,0
2769436,0,0,0
2769438,0,0,0
2769441,0,0,0
2769444,0,0,0
2769446,0,0,0
2769449,0,0,0
2769452,0,0,0
2769455,0,0,0
2769457,0,0,0
2769460,0,0,0
2769463,0,0,0
2769465,0,0,0
2769468,0,0,0
2769470,0,0,0
2769473,0,0,0
2769475,0,0,0
2769478,0,0,0
2769481,0,0,0
2769483,0,0,0
2769486,0,0,0
2769488,0,0,0
2769491,0,0,0
2769494,0,0,0
2769497,0.2007689,0.2017412,-0.1083524
2769500,0.2007689,0.2017412,-0.1083524
2769502,0.2733977,0.2741124,-0.09487279
2769505,0.3310224,0.3322025,-0.08392937
2769507,0.3310224,0.3322025,-0.08392937
2769510,0.4173099,0.4182466,-0.06852804
2769513,0.4476244,0.4493696,-0.06255726
2769515,0.4476244,0.4493696,-0.06255726
2769518,0.4702222,0.4714689,-0.05934703
2769520,0.4877876,0.4889896,-0.05595291
2769523,0.4877876,0.4889896,-0.05595291
2769525,0.5028,0.5043544,-0.04845664
2769528,0.5151029,0.5166202,-0.04845664
2769531,0.5151029,0.5166202,-0.04845664
2769533,0.5252593,0.5263757,-0.04423466
2769537,0.5252593,0.5263757,-0.04423466
2769539,0.5403171,0.5406791,-0.03956468
2769542,0.5453635,0.5460806,-0.03426402
2769544,0.5453635,0.5460806,-0.03426402
2769547,0.5453635,0.5460806,-0.03426402
2769550,0.5453635,0.5460806,-0.03426402
2769552,0.5453635,0.5460806,-0.03426402
2769555,0.5453635,0.5460806,-0.03426402
2769557,0.5453635,0.5460806,-0.03426402
2769560,0.5453635,0.5460806,-0.03426402
2769562,0.5507192,0.5500081,-0.03426402
2769565,0.5630175,0.5602303,-0.02797646
2769568,0.5630175,0.5602303,-0.02797646
2769570,0.5678623,0.5640592,-0.02797646
2769573,0.5678623,0.5640592,-0.02797646
2769575,0.5709552,0.5661368,-0.02797646
2769579,0.575053,0.569239,-0.01978234
2769581,0.575053,0.569239,-0.01978234
2769584,0.5712977,0.5657911,-0.01978234
2769587,0.5685511,0.5630175,-0.02797646
2769589,0.5685511,0.5630175,-0.02797646
2769592,0.5640592,0.5598809,-0.02797646
2769594,0.5581307,0.5549665,-0.02797646
2769597,0.5581307,0.5549665,-0.02797646
2769599,0.5567266,0.5539077,-0.02797646
2769602,0.556375,0.5528469,-0.03426402
2769605,0.556375,0.5528469,-0.03426402
2769607,0.5581307,0.5556712,-0.03426402
2769610,0.5581307,0.5556712,-0.03426402
2769612,0.5598809,0.5574291,-0.03426402
2769615,0.5675176,0.5650989,-0.02797646
2769617,0.5675176,0.5650989,-0.02797646
2769620,0.5797972,0.5760729,-0.02797646
2769624,0.5804718,0.577091,-0.01978234
2769626,0.5804718,0.577091,-0.01978234
2769629,0.5811456,0.5777687,-0.01978234
2769631,0.5818186,0.5777687,-0.01978234
2769634,0.5821548,0.5791218,-0.02797646
2769636,0.5831623,0.5797972,-0.02797646
2769639,0.5828267,0.5794597,-0.02797646
2769642,0.5828267,0.5794597,-0.02797646
2769644,0.5828267,0.5794597,-0.01978234
2769647,0.5824909,0.5794597,0
2769649,0.5824909,0.5794597,0
2769652,0.5834977,0.5801346,-0.01978234
2769654,0.5834977,0.5801346,-0.01978234
2769657,0.5834977,0.5801346,-0.01978234
2769660,0.5834977,0.5804718,-0.01978234
2769662,0.5834977,0.5804718,-0.01978234
2769666,0.5841681,0.5804718,0
2769668,0.5841681,0.5808088,-0.01978234
2769671,0.5841681,0.5808088,-0.01978234
2769673,0.5845029,0.5811456,-0.01978234
2769676,0.5811456,0.57743,0
2769679,0.5811456,0.57743,0
2769681,0.5743721,0.5702693,0
2769684,0.5706123,0.5664824,-0.01978234
2769686,0.5706123,0.5664824,-0.01978234
2769689,0.5682068,0.5630175,0
2769691,0.5682068,0.5630175,0
2769694,0.5682068,0.5630175,0
2769697,0.5637122,0.5584812,0
2769699,0.5637122,0.5584812,0
2769702,0.5602303,0.5556712,0
2769704,0.5574291,0.5528469,0
2769708,0.5574291,0.5528469,0
2769710,0.5514293,0.5460806,0
2769713,0.5450047,0.5395923,0
2769716,0.5450047,0.5395923,0
2769718,0.5399548,0.5348573,0
2769721,0.5359538,0.5308178,0
2769723,0.5359538,0.5308178,0
2769726,0.5341251,0.5289715,0
2769729,0.5341251,0.5289715,0
2769731,0.5337587,0.5289715,0
2769734,0.5326577,0.5282311,0
2769736,0.5326577,0.5282311,0
2769739,0.5337587,0.5297108,0
2769741,0.5344914,0.530449,0
2769744,0.5344914,0.530449,0
2769747,0.5348573,0.5311863,0
2769750,0.5344914,0.5308178,0
2769753,0.5344914,0.5308178,0
2769755,0.5337587,0.53008,0
2769758,0.5289715,0.5263757,0
2769760,0.5289715,0.5263757,0
2769763,0.5271187,0.5252593,0
2769766,0.5271187,0.5252593,0
2769768,0.5274898,0.5260038,0
2769771,0.5274898,0.5260038,0
2769773,0.5274898,0.5260038,0
2769776,0.5297108,0.5286014,0
2769778,0.5311863,0.5293413,-0.01978234
2769781,0.5311863,0.5293413,-0.01978234
2769784,0.5319225,0.53008,-0.01978234
2769786,0.5326577,0.5315546,-0.01978234
2769789,0.5326577,0.5315546,-0.01978234
2769792,0.5315546,0.5311863,-0.01978234
2769795,0.530449,0.5308178,0
2769797,0.530449,0.5308178,0
2769800,0.530449,0.5308178,0
2769803,0.530449,0.5308178,0
2769805,0.53008,0.5293413,0
2769808,0.53008,0.5297108,0
2769810,0.53008,0.5297108,0
2769813,0.53008,0.5289715,0
2769815,0.53008,0.5293413,0
2769818,0.53008,0.5293413,0
2769821,0.530449,0.5289715,0
2769823,0.530449,0.5293413,0
2769826,0.530449,0.5293413,0
2769828,0.53008,0.5286014,0
2769831,0.5326577,0.530449,0
2769833,0.5326577,0.530449,0
2769837,0.5355885,0.533392,0
2769840,0.5355885,0.533392,0
2769842,0.5370479,0.5344914,0
2769845,0.5381398,0.5352231,0
2769847,0.5381398,0.5352231,0
2769850,0.5417637,0.5381398,0
2769852,0.5439265,0.5399548,0
2769855,0.5439265,0.5399548,0
2769858,0.5482264,0.5439265,0
2769860,0.5500081,0.5457222,0
2769863,0.5500081,0.5457222,0
2769865,0.5524929,0.5478694,0
2769868,0.5539077,0.5489398,0
2769870,0.5539077,0.5489398,0
2769873,0.5556712,0.5510744,0
2769876,0.5556712,0.5510744,0
2769879,0.5570779,0.5517841,0
2769882,0.5570779,0.5524929,0
2769884,0.5570779,0.5524929,0
2769887,0.5567266,0.5524929,0
2769889,0.556375,0.5521386,0
2769892,0.556375,0.5521386,0
2769895,0.5584812,0.5539077,0
2769897,0.5570779,0.5532007,0
2769900,0.5570779,0.5532007,0
2769902,0.555319,0.5517841,0
2769905,0.5546138,0.5503638,0
2769907,0.5546138,0.5503638,0
2769910,0.5528469,0.5489398,0
2769913,0.5528469,0.5489398,0
2769915,0.5524929,0.5485832,0
2769918,0.5517841,0.5478694,0
2769921,0.5517841,0.5478694,0
2769924,0.5514293,0.5478694,0
2769927,0.5517841,0.5482264,0
2769929,0.5517841,0.5482264,0
2769932,0.5521386,0.5482264,-0.01978234
2769934,0.5510744,0.5475121,0
2769937,0.5510744,0.5475121,0
2769939,0.5517841,0.5489398,0
2769942,0.5524929,0.5496522,0
2769945,0.5524929,0.5496522,0
2769947,0.5532007,0.5500081,0
2769950,0.5532007,0.5500081,0
2769952,0.5510744,0.5478694,0
2769955,0.5503638,0.5471546,-0.01978234
2769957,0.5503638,0.5471546,-0.01978234
2769960,0.5510744,0.5485832,0
2769964,0.5517841,0.5485832,0
2769966,0.5546138,0.5517841,0
2769969,0.5570779,0.5539077,0
2769971,0.5588315,0.5556712,0
2769974,0.5588315,0.5556712,0
2769976,0.5584812,0.5556712,0
2769979,0.5584812,0.5556712,0
2769982,0.5591815,0.556375,0
2769984,0.5591815,0.5574291,0
2769987,0.5605795,0.5581307,0
2769989,0.5605795,0.5581307,0
2769992,0.5616257,0.5598809,0
2769994,0.5616257,0.5598809,0
2769997,0.5605795,0.5588315,0
2770000,0.5595313,0.5584812,0
2770002,0.5595313,0.5584812,0
2770006,0.5588315,0.5574291,0
2770008,0.5598809,0.5584812,0
2770011,0.5605795,0.5591815,0
2770013,0.5612772,0.5598809,0
2770016,0.5612772,0.5602303,0
2770019,0.5612772,0.5602303,0
2770021,0.5612772,0.5598809,0
2770024,0.5612772,0.5598809,0
2770026,0.5612772,0.5598809,0
2770029,0.5612772,0.5598809,0
2770031,0.5612772,0.5598809,0
2770034,0.5619739,0.5602303,0
2770037,0.5626699,0.5612772,-0.01978234
2770039,0.5626699,0.5612772,-0.01978234
2770042,0.5598809,0.5584812,0
2770044,0.5556712,0.5546138,0
2770048,0.5556712,0.5546138,0
2770050,0.5539077,0.5524929,0
2770053,0.5524929,0.5510744,-0.01978234
2770056,0.5524929,0.5510744,-0.01978234
2770058,0.5528469,0.5510744,-0.01978234
2770061,0.5528469,0.5510744,-0.01978234
2770063,0.5528469,0.5510744,-0.01978234
2770066,0.5521386,0.5510744,-0.01978234
2770068,0.5521386,0.5510744,-0.01978234
2770071,0.5517841,0.5510744,0
2770074,0.5496522,0.5492961,-0.01978234
2770076,0.5496522,0.5492961,-0.01978234
2770079,0.5478694,0.5475121,-0.01978234
2770081,0.5457222,0.5464389,-0.02797646
2770084,0.5457222,0.5464389,-0.02797646
2770086,0.5457222,0.5464389,-0.02797646
2770089,0.5453635,0.5464389,-0.01978234
2770093,0.5453635,0.5464389,-0.01978234
2770095,0.5435666,0.5453635,-0.02797646
2770098,0.5435666,0.5460806,-0.02797646
2770100,0.5435666,0.5460806,-0.02797646
2770103,0.5446455,0.5475121,-0.03426402
2770105,0.5446455,0.5475121,-0.03426402
2770108,0.5478694,0.5500081,-0.02797646
2770111,0.5496522,0.5524929,-0.02797646
2770113,0.5496522,0.5524929,-0.02797646
2770116,0.5507192,0.5532007,-0.02797646
2770118,0.5500081,0.5528469,-0.02797646
2770121,0.5500081,0.5528469,-0.02797646
2770123,0.5489398,0.5517841,-0.02797646
2770126,0.5485832,0.5507192,-0.02797646
2770129,0.5485832,0.5507192,-0.02797646
2770131,0.5475121,0.5485832,-0.02797646
2770135,0.5453635,0.5467969,-0.02797646
2770137,0.5453635,0.5467969,-0.02797646
2770140,0.5453635,0.5460806,-0.01978234
2770143,0.5453635,0.5460806,-0.01978234
2770145,0.5453635,0.5457222,-0.02797646
2770148,0.5467969,0.5467969,-0.01978234
2770150,0.5467969,0.5467969,-0.01978234
2770153,0.5489398,0.5482264,-0.01978234
2770155,0.5503638,0.5492961,0
2770158,0.5503638,0.5492961,0
2770161,0.5517841,0.5500081,0
2770163,0.5539077,0.5524929,-0.01978234
2770166,0.5539077,0.5524929,-0.01978234
2770168,0.555319,0.5539077,-0.01978234
2770171,0.556375,0.555319,0
2770173,0.5581307,0.5567266,0
2770177,0.5591815,0.55778,0
2770180,0.5591815,0.55778,0
2770182,0.5602303,0.5584812,0
2770185,0.5602303,0.5584812,0
2770187,0.5602303,0.5584812,0
2770190,0.5605795,0.5584812,0
2770192,0.5612772,0.5595313,-0.01978234
2770195,0.5619739,0.5598809,-0.01978234
2770198,0.5605795,0.5588315,0
2770200,0.5595313,0.55778,0
2770203,0.5595313,0.55778,0
2770205,0.5588315,0.5570779,0
2770208,0.5595313,0.5574291,0
2770210,0.5595313,0.5574291,0
2770213,0.5591815,0.55778,0
2770216,0.5591815,0.55778,0
2770219,0.5584812,0.55778,0
2770222,0.5584812,0.5574291,0
2770224,0.5584812,0.5574291,0
2770227,0.5584812,0.5574291,0
2770229,0.5584812,0.5570779,0
2770232,0.5588315,0.55778,0
2770235,0.5591815,0.5581307,0
2770237,0.5591815,0.5584812,0
2770240,0.5591815,0.5584812,0
2770242,0.5612772,0.5609285,-0.01978234
2770245,0.5647526,0.564406,-0.01978234
2770247,0.5647526,0.564406,-0.01978234
2770250,0.5675176,0.5675176,0
2770253,0.5675176,0.5675176,0
2770255,0.5699261,0.5699261,-0.01978234
2770258,0.5760729,0.5757331,-0.01978234
2770260,0.5760729,0.5757331,-0.01978234
2770264,0.5777687,0.57743,0
2770266,0.5787839,0.5787839,0
2770269,0.5787839,0.5787839,0
2770272,0.5797972,0.5797972,-0.01978234
2770274,0.5801346,0.5801346,-0.01978234
2770277,0.5801346,0.5801346,-0.01978234
2770279,0.5797972,0.5801346,-0.01978234
2770282,0.5845029,0.583833,-0.01978234
2770284,0.5845029,0.583833,-0.01978234
2770287,0.5861744,0.5851721,-0.01978234
2770290,0.5861744,0.5851721,-0.01978234
2770292,0.5868416,0.5868416,-0.01978234
2770295,0.5875081,0.5875081,-0.02797646
2770297,0.5875081,0.5875081,-0.02797646
2770300,0.5924829,0.5921526,-0.01978234
2770302,0.5957764,0.5954478,-0.02797646
2770306,0.5957764,0.5954478,-0.02797646
2770309,0.5977437,0.5967609,-0.02797646
2770311,0.6000308,0.6000308,-0.02797646
2770314,0.6000308,0.6000308,-0.02797646
2770316,0.6029587,0.6026341,-0.01978234
2770319,0.6049027,0.6045791,-0.01978234
2770321,0.6049027,0.6045791,-0.01978234
2770324,0.608772,0.607807,-0.02797646
2770327,0.6100564,0.6094146,-0.01978234
2770329,0.6100564,0.6094146,-0.01978234
2770332,0.6119779,0.6116581,-0.02797646
2770334,0.6119779,0.6116581,-0.02797646
2770337,0.6135744,0.6129363,-0.01978234
2770340,0.615167,0.614212,-0.02797646
2770342,0.615167,0.614212,-0.02797646
2770345,0.615167,0.614212,-0.02797646
2770348,0.6214961,0.6202354,-0.02797646
2770351,0.6214961,0.6202354,-0.02797646
2770353,0.6318005,0.6286958,-0.01978234
2770356,0.6308707,0.6277614,-0.01978234
2770359,0.6308707,0.6277614,-0.01978234
2770361,0.6311808,0.6274496,-0.01978234
2770364,0.6308707,0.6271377,-0.01978234
2770366,0.6308707,0.6271377,-0.01978234
2770369,0.6296288,0.6268256,-0.02797646
2770371,0.6296288,0.6268256,-0.02797646
2770374,0.6258884,0.6240098,-0.01978234
2770377,0.6236961,0.6214961,-0.01978234
2770379,0.6236961,0.6214961,-0.01978234
2770382,0.6218109,0.6199199,-0.01978234
2770384,0.6116581,0.6110179,-0.02797646
2770387,0.6116581,0.6110179,-0.02797646
2770390,0.607807,0.6074851,-0.02797646
2770393,0.6049027,0.605226,-0.02797646
2770396,0.6049027,0.605226,-0.02797646
2770398,0.5990517,0.5993783,-0.01978234
2770401,0.5961047,0.5967609,-0.02797646
2770403,0.5961047,0.5967609,-0.02797646
2770406,0.5941319,0.5951191,-0.03426402
2770408,0.5941319,0.5951191,-0.03426402
2770411,0.5934729,0.5944612,-0.03426402
2770414,0.5928131,0.5941319,-0.03426402
2770416,0.5928131,0.5941319,-0.03426402
2770419,0.589503,0.5911604,-0.03426402
2770421,0.5881739,0.5901666,-0.03426402
2770424,0.5881739,0.5901666,-0.03426402
2770426,0.587175,0.5888388,-0.03426402
2770429,0.5865081,0.5878411,-0.03426402
2770433,0.5865081,0.5878411,-0.03426402
2770435,0.5834977,0.5855064,-0.03426402
2770438,0.5824909,0.5845029,-0.03956468
2770440,0.5824909,0.5845029,-0.03956468
2770443,0.5804718,0.5824909,-0.03956468
2770445,0.5804718,0.5824909,-0.03956468
2770448,0.5791218,0.5814822,-0.03426402
2770451,0.5781073,0.5808088,-0.03956468
2770453,0.5781073,0.5808088,-0.03956468
2770456,0.5781073,0.5808088,-0.03956468
2770458,0.5787839,0.5814822,-0.03956468
2770461,0.5787839,0.5814822,-0.03956468
2770463,0.5794597,0.5818186,-0.04423466
2770466,0.5781073,0.5808088,-0.03956468
2770469,0.5781073,0.5808088,-0.03956468
2770471,0.5777687,0.5804718,-0.03956468
2770475,0.5781073,0.5804718,-0.03956468
2770477,0.5781073,0.5804718,-0.03956468
2770480,0.5781073,0.5801346,-0.03956468
2770482,0.5781073,0.5801346,-0.03956468
2770485,0.5781073,0.5801346,-0.03956468
2770488,0.5767518,0.5794597,-0.04423466
2770490,0.5767518,0.5794597,-0.04423466
2770493,0.5753932,0.5781073,-0.03956468
2770495,0.575053,0.5777687,-0.03956468
2770498,0.575053,0.5777687,-0.03956468
2770500,0.5747126,0.57743,-0.04423466
2770503,0.5747126,0.5777687,-0.03956468
2770506,0.5747126,0.5777687,-0.03956468
2770508,0.5736903,0.5767518,-0.03426402
2770511,0.5730078,0.5753932,-0.03956468
2770513,0.5730078,0.5753932,-0.03956468
2770516,0.5730078,0.5753932,-0.03956468
2770519,0.5730078,0.5753932,-0.03956468
2770522,0.5723243,0.575053,-0.03956468
2770525,0.5723243,0.575053,-0.03956468
2770527,0.5723243,0.575053,-0.03956468
2770530,0.5719823,0.575053,-0.03956468
2770532,0.5695826,0.5733491,-0.03956468
2770535,0.5695826,0.5733491,-0.03956468
2770537,0.5664824,0.5706123,-0.03956468
2770540,0.5630175,0.5678623,-0.04423466
2770543,0.5630175,0.5678623,-0.04423466
2770545,0.5605795,0.5654452,-0.03956468
2770548,0.5605795,0.5647526,-0.03956468
2770550,0.5605795,0.5647526,-0.03956468
2770553,0.5623221,0.5664824,-0.03956468
2770556,0.5623221,0.5664824,-0.03956468
2770558,0.5671728,0.5709552,-0.03426402
2770562,0.5699261,0.5736903,-0.03426402
2770564,0.5699261,0.5736903,-0.03426402
2770567,0.5654452,0.5695826,-0.03956468
2770569,0.5637122,0.5682068,-0.03956468
2770572,0.5637122,0.5682068,-0.03956468
2770575,0.5619739,0.5661368,-0.03956468
2770577,0.5598809,0.5647526,-0.03956468
2770580,0.5598809,0.5647526,-0.03956468
2770582,0.5570779,0.5623221,-0.04423466
2770585,0.5556712,0.5612772,-0.04423466
2770587,0.5556712,0.5612772,-0.04423466
2770590,0.555319,0.5609285,-0.04423466
2770593,0.555319,0.5609285,-0.04423466
2770595,0.5542608,0.5605795,-0.04423466
2770598,0.55778,0.5640592,-0.04423466
2770600,0.55778,0.5640592,-0.04423466
2770604,0.5605795,0.5668277,-0.04845664
2770606,0.5668277,0.5733491,-0.05233916
2770609,0.5668277,0.5733491,-0.05233916
2770612,0.5699261,0.5767518,-0.05595291
2770614,0.5730078,0.5794597,-0.05934703
2770617,0.5730078,0.5794597,-0.05934703
2770619,0.5767518,0.583833,-0.05934703
2770622,0.5733491,0.5804718,-0.05934703
2770624,0.5733491,0.5804718,-0.05934703
2770627,0.5709552,0.5781073,-0.05595291
2770630,0.5709552,0.5781073,-0.05595291
2770632,0.5640592,0.5709552,-0.05934703
2770635,0.5598809,0.5668277,-0.05233916
2770637,0.5598809,0.5668277,-0.05233916
2770640,0.556375,0.5630175,-0.05595291
2770642,0.5496522,0.5567266,-0.05233916
2770646,0.5496522,0.5567266,-0.05233916
2770649,0.5478694,0.5542608,-0.05595291
2770651,0.5446455,0.5521386,-0.05595291
2770654,0.5446455,0.5521386,-0.05595291
2770656,0.5424856,0.5496522,-0.05934703
2770659,0.5406791,0.5478694,-0.05595291
2770661,0.5406791,0.5478694,-0.05595291
2770664,0.5388666,0.5464389,-0.05934703
2770667,0.5352231,0.5428462,-0.05934703
2770669,0.5352231,0.5428462,-0.05934703
2770672,0.5341251,0.5414024,-0.06255726
2770674,0.5341251,0.5414024,-0.06255726
2770677,0.5319225,0.5392296,-0.06255726
2770679,0.53008,0.5381398,-0.06255726
2770682,0.53008,0.5381398,-0.06255726
2770685,0.53008,0.5381398,-0.06255726
2770688,0.5293413,0.5381398,-0.06255726
2770691,0.5293413,0.5381398,-0.06255726
2770693,0.5337587,0.5414024,-0.06255726
2770696,0.5348573,0.5428462,-0.06255726
2770698,0.5348573,0.5428462,-0.06255726
2770701,0.5355885,0.5439265,-0.0656106
2770704,0.5366834,0.5450047,-0.06255726
2770706,0.5366834,0.5450047,-0.06255726
2770709,0.5370479,0.5453635,-0.06255726
2770711,0.5370479,0.5453635,-0.06255726
2770714,0.5392296,0.5475121,-0.0656106
2770716,0.5403171,0.5485832,-0.06255726
2770719,0.5403171,0.5485832,-0.06255726
2770722,0.5410409,0.5492961,-0.06255726
2770724,0.5414024,0.5492961,-0.06255726
2770727,0.5410409,0.5492961,-0.0656106
2770729,0.5410409,0.5492961,-0.0656106
2770733,0.5421248,0.5500081,-0.06255726
2770735,0.5421248,0.5500081,-0.06255726
2770738,0.5428462,0.5514293,-0.0656106
2770741,0.5395923,0.5478694,-0.0656106
2770743,0.5395923,0.5478694,-0.0656106
2770746,0.5385033,0.5471546,-0.0656106
2770748,0.5385033,0.5471546,-0.0656106
2770751,0.5392296,0.5478694,-0.06255726
2770753,0.5399548,0.5485832,-0.06255726
2770756,0.5399548,0.5485832,-0.06255726
2770759,0.5377761,0.5464389,-0.05934703
2770761,0.5363187,0.5439265,-0.06255726
2770764,0.5363187,0.5439265,-0.06255726
2770766,0.5344914,0.5428462,-0.05934703
2770769,0.533392,0.5414024,-0.05934703
2770772,0.533392,0.5414024,-0.05934703
2770775,0.5341251,0.5421248,-0.05934703
2770778,0.5344914,0.5424856,-0.05934703
2770780,0.5344914,0.5424856,-0.05934703
2770783,0.5352231,0.5424856,-0.05934703
2770785,0.5352231,0.5424856,-0.05934703
2770788,0.5388666,0.5460806,-0.05934703
2770791,0.5414024,0.5489398,-0.05934703
2770793,0.5414024,0.5489398,-0.05934703
2770796,0.5439265,0.5503638,-0.05934703
2770798,0.5485832,0.5560232,-0.05595291
2770801,0.5485832,0.5560232,-0.05595291
2770803,0.5560232,0.5637122,-0.06255726
2770806,0.5574291,0.5654452,-0.05934703
2770809,0.5574291,0.5654452,-0.05934703
2770811,0.5591815,0.5668277,-0.06255726
2770814,0.5605795,0.5675176,-0.06255726
2770817,0.5605795,0.5675176,-0.06255726
2770820,0.5609285,0.5678623,-0.05934703
2770822,0.5609285,0.5678623,-0.05934703
2770825,0.5612772,0.5685511,-0.06255726
2770828,0.5602303,0.5682068,-0.06255726
2770830,0.5602303,0.5682068,-0.06255726
2770833,0.5626699,0.5702693,-0.06255726
2770835,0.5650989,0.5726661,-0.06255726
2770838,0.5650989,0.5726661,-0.06255726
2770840,0.564406,0.5716401,-0.0656106
2770843,0.563365,0.5706123,-0.0656106
2770846,0.563365,0.5706123,-0.0656106
2770848,0.5609285,0.5682068,-0.0656106
2770851,0.5595313,0.5664824,-0.06255726
2770853,0.5595313,0.5664824,-0.06255726
2770856,0.5584812,0.5654452,-0.05934703
2770859,0.5584812,0.5654452,-0.05934703
2770862,0.5574291,0.564406,-0.06255726
2770865,0.5567266,0.5637122,-0.06255726
2770867,0.5567266,0.5637122,-0.06255726
2770870,0.556375,0.563365,-0.06255726
2770872,0.5567266,0.563365,-0.06255726
2770875,0.5567266,0.563365,-0.06255726
2770877,0.5570779,0.5637122,-0.06255726
2770880,0.5570779,0.5637122,-0.06255726
2770883,0.5570779,0.5637122,-0.06255726
2770885,0.556375,0.563365,-0.0656106
2770888,0.556375,0.563365,-0.0656106
2770890,0.556375,0.563365,-0.0656106
2770893,0.5591815,0.5664824,-0.06852804
2770895,0.5591815,0.5664824,-0.06852804
2770898,0.5598809,0.5671728,-0.07132626
2770902,0.5598809,0.5675176,-0.06852804
2770904,0.5598809,0.5675176,-0.06852804
2770907,0.5598809,0.5678623,-0.07401875
2770909,0.5595313,0.5678623,-0.07401875
2770912,0.5595313,0.5678623,-0.07401875
2770914,0.5598809,0.5685511,-0.07661668
2770917,0.5598809,0.5685511,-0.07401875
2770920,0.5598809,0.5685511,-0.07401875
2770922,0.5598809,0.5688952,-0.07401875
2770925,0.5588315,0.5678623,-0.07661668
2770927,0.5588315,0.5678623,-0.07661668
2770930,0.5591815,0.5678623,-0.07912937
2770932,0.5591815,0.5678623,-0.07912937
2770935,0.5609285,0.5702693,-0.07661668
2770938,0.5623221,0.5709552,-0.07912937
2770940,0.5623221,0.5709552,-0.07912937
2770944,0.5623221,0.5716401,-0.07912937
2770946,0.5626699,0.5712977,-0.07912937
2770949,0.5626699,0.5712977,-0.07912937
2770951,0.5623221,0.5719823,-0.07661668
2770954,0.563365,0.5719823,-0.07661668
2770957,0.563365,0.5719823,-0.07661668
2770959,0.5619739,0.5706123,-0.07661668
2770962,0.5612772,0.5699261,-0.07401875
2770964,0.5612772,0.5699261,-0.07401875
2770967,0.5602303,0.5685511,-0.07132626
2770970,0.5591815,0.5682068,-0.07132626
2770972,0.5591815,0.5682068,-0.07132626
2770975,0.5661368,0.5743721,-0.07132626
2770977,0.5661368,0.5743721,-0.07132626
2770980,0.5682068,0.5767518,-0.07132626
2770982,0.5699261,0.5784457,-0.07132626
2770985,0.5699261,0.5784457,-0.07132626
2770989,0.5719823,0.5808088,-0.06852804
2770991,0.5743721,0.5834977,-0.06852804
2770994,0.5743721,0.5834977,-0.06852804
2770996,0.5781073,0.587175,-0.06852804
2770999,0.5781073,0.587175,-0.06852804
2771001,0.5781073,0.587175,-0.06852804
2771004,0.5787839,0.5875081,-0.0656106
2771007,0.5777687,0.5868416,-0.0656106
2771009,0.5777687,0.5868416,-0.0656106
2771012,0.5760729,0.5855064,-0.0656106
2771014,0.5760729,0.5855064,-0.0656106
2771017,0.5747126,0.5845029,-0.06255726
2771019,0.5730078,0.5824909,-0.06255726
2771022,0.5730078,0.5824909,-0.06255726
2771025,0.5716401,0.5811456,-0.06255726
2771027,0.5695826,0.5791218,-0.06255726
2771031,0.5695826,0.5791218,-0.06255726
2771033,0.5682068,0.5777687,-0.06255726
2771036,0.5661368,0.5757331,-0.05934703
2771038,0.5661368,0.5757331,-0.05934703
2771041,0.5640592,0.5743721,-0.05934703
2771044,0.5619739,0.5719823,-0.05934703
2771046,0.5619739,0.5719823,-0.05934703
2771049,0.5619739,0.5712977,-0.06255726
2771051,0.5619739,0.5712977,-0.06255726
2771054,0.5609285,0.5702693,-0.05934703
2771056,0.5612772,0.5706123,-0.06255726
2771059,0.5612772,0.5706123,-0.06255726
2771062,0.5605795,0.5699261,-0.06255726
2771064,0.5588315,0.5682068,-0.05934703
2771067,0.5588315,0.5682068,-0.05934703
2771069,0.5567266,0.5650989,-0.05934703
2771073,0.555319,0.564406,-0.05934703
2771075,0.555319,0.564406,-0.05934703
2771078,0.5542608,0.563365,-0.06255726
2771081,0.5524929,0.5605795,-0.06255726
2771083,0.5524929,0.5605795,-0.06255726
2771086,0.5514293,0.5598809,-0.05934703
2771088,0.5514293,0.5598809,-0.05934703
2771091,0.5510744,0.5588315,-0.05934703
2771093,0.5503638,0.5584812,-0.05934703
2771096,0.5503638,0.5584812,-0.05934703
2771099,0.5503638,0.5581307,-0.05934703
2771101,0.5503638,0.5581307,-0.05934703
2771104,0.5503638,0.5581307,-0.05934703
2771106,0.5478694,0.556375,-0.05934703
2771109,0.5457222,0.5546138,-0.05934703
2771111,0.5457222,0.5546138,-0.05934703
2771115,0.5439265,0.5528469,-0.05934703
2771118,0.5435666,0.5524929,-0.06255726
2771120,0.5435666,0.5524929,-0.06255726
2771123,0.5424856,0.5514293,-0.06255726
2771125,0.5424856,0.5514293,-0.06255726
2771128,0.5421248,0.5507192,-0.0656106
2771130,0.5414024,0.5496522,-0.06255726
2771133,0.5414024,0.5496522,-0.06255726
2771136,0.5406791,0.5496522,-0.0656106
2771138,0.5428462,0.5514293,-0.0656106
2771141,0.5428462,0.5514293,-0.0656106
2771143,0.5435666,0.5528469,-0.0656106
2771146,0.5467969,0.555319,-0.0656106
2771148,0.5467969,0.555319,-0.0656106
2771151,0.5489398,0.5574291,-0.0656106
2771154,0.5496522,0.5588315,-0.0656106
2771156,0.5496522,0.5588315,-0.0656106
2771160,0.5492961,0.5581307,-0.0656106
2771162,0.5492961,0.5581307,-0.0656106
2771165,0.5489398,0.5581307,-0.0656106
2771167,0.5567266,0.5647526,-0.0656106
2771170,0.5567266,0.5647526,-0.0656106
2771173,0.5595313,0.5675176,-0.06852804
2771175,0.5626699,0.5702693,-0.06852804
2771178,0.5626699,0.5702693,-0.06852804
2771180,0.5637122,0.5712977,-0.06852804
2771183,0.5640592,0.5719823,-0.07132626
2771186,0.5640592,0.5719823,-0.07132626
2771188,0.5640592,0.5719823,-0.07132626
2771191,0.5637122,0.5716401,-0.07132626
2771193,0.5637122,0.5716401,-0.07132626
2771196,0.5640592,0.5719823,-0.07401875
2771198,0.5640592,0.5719823,-0.07401875
2771202,0.5685511,0.5767518,-0.07661668
2771205,0.5699261,0.5787839,-0.07912937
2771207,0.5699261,0.5787839,-0.07912937
2771210,0.5695826,0.5784457,-0.08156469
2771212,0.5695826,0.5781073,-0.07912937
2771215,0.5695826,0.5781073,-0.07912937
2771217,0.5671728,0.5753932,-0.08156469
2771220,0.5650989,0.5743721,-0.08392937
2771223,0.5650989,0.5743721,-0.08392937
2771225,0.5650989,0.5743721,-0.08392937
2771228,0.5650989,0.5747126,-0.08392937
2771230,0.5650989,0.5747126,-0.08392937
2771233,0.5657911,0.5753932,-0.08392937
2771235,0.5657911,0.5753932,-0.08392937
2771238,0.5671728,0.5764125,-0.08156469
2771241,0.5668277,0.5764125,-0.08156469
2771244,0.5668277,0.5764125,-0.08156469
2771247,0.5671728,0.5767518,-0.08156469
2771249,0.5682068,0.57743,-0.08156469
2771252,0.5682068,0.57743,-0.08156469
2771254,0.5685511,0.5777687,-0.08392937
2771257,0.5699261,0.5794597,-0.08392937
2771260,0.5699261,0.5794597,-0.08392937
2771262,0.5706123,0.5797972,-0.08392937
2771265,0.5695826,0.5784457,-0.08392937
2771267,0.5695826,0.5784457,-0.08392937
2771270,0.5688952,0.5777687,-0.08622923
2771272,0.5688952,0.5777687,-0.08622923
2771275,0.5682068,0.57743,-0.08392937
2771278,0.5675176,0.5767518,-0.08392937
2771280,0.5675176,0.5767518,-0.08392937
2771283,0.5678623,0.577091,-0.08392937
2771286,0.5682068,0.5777687,-0.08622923
2771289,0.5682068,0.5777687,-0.08622923
2771291,0.5706123,0.5794597,-0.08622923
2771294,0.5719823,0.5811456,-0.08622923
2771297,0.5719823,0.5811456,-0.08622923
2771299,0.5719823,0.5814822,-0.08846933
2771302,0.5712977,0.5814822,-0.08846933
2771304,0.5712977,0.5814822,-0.08846933
2771307,0.5702693,0.5797972,-0.09065409
2771309,0.5695826,0.5787839,-0.09065409
2771312,0.5695826,0.5787839,-0.09065409
2771315,0.5702693,0.5801346,-0.09065409
2771317,0.5702693,0.5801346,-0.09065409
2771320,0.5719823,0.5818186,-0.09065409
2771322,0.5740312,0.5841681,-0.09065409
2771325,0.5740312,0.5841681,-0.09065409
2771328,0.5757331,0.5858405,-0.09065409
2771331,0.577091,0.5875081,-0.09278741
2771334,0.577091,0.5875081,-0.09278741
2771336,0.5767518,0.5878411,-0.09278741
2771339,0.5757331,0.5861744,-0.09065409
2771341,0.5757331,0.5861744,-0.09065409
2771344,0.5753932,0.5861744,-0.09065409
2771346,0.5740312,0.5845029,-0.09278741
2771349,0.5740312,0.5845029,-0.09278741
2771352,0.5723243,0.5828267,-0.09065409
2771354,0.5723243,0.5828267,-0.09065409
2771357,0.5702693,0.5808088,-0.08846933
2771359,0.569239,0.5784457,-0.08846933
2771362,0.5675176,0.5784457,-0.08846933
2771364,0.5661368,0.5767518,-0.08846933
2771367,0.5654452,0.5753932,-0.09065409
2771371,0.5654452,0.5753932,-0.09065409
2771373,0.5637122,0.5743721,-0.08846933
2771376,0.564406,0.5743721,-0.09065409
2771378,0.564406,0.5743721,-0.09065409
2771381,0.5626699,0.5726661,-0.09065409
2771384,0.5612772,0.5716401,-0.08846933
2771386,0.5612772,0.5716401,-0.08846933
2771389,0.5584812,0.5685511,-0.09065409
2771391,0.5584812,0.5685511,-0.09065409
2771394,0.555319,0.5657911,-0.08622923
2771396,0.5535544,0.5637122,-0.08846933
2771399,0.5535544,0.5637122,-0.08846933
2771402,0.5503638,0.5609285,-0.08622923
2771404,0.5500081,0.5598809,-0.08622923
2771407,0.5500081,0.5598809,-0.08622923
2771409,0.5521386,0.5623221,-0.08392937
2771412,0.5532007,0.563365,-0.08392937
2771415,0.5532007,0.563365,-0.08392937
2771418,0.5507192,0.5602303,-0.08156469
2771421,0.5503638,0.5595313,-0.08156469
2771423,0.5503638,0.5595313,-0.08156469
2771426,0.5485832,0.5574291,-0.08156469
2771428,0.5485832,0.5574291,-0.08156469
2771431,0.5478694,0.5570779,-0.07912937
2771433,0.5478694,0.5567266,-0.07912937
2771436,0.5478694,0.5567266,-0.07912937
2771439,0.5482264,0.5574291,-0.07661668
2771441,0.5482264,0.5574291,-0.07661668
2771444,0.5482264,0.5574291,-0.07661668
2771446,0.5492961,0.5581307,-0.07912937
2771449,0.5489398,0.5570779,-0.07661668
2771451,0.5489398,0.5570779,-0.07661668
2771454,0.5492961,0.55778,-0.07912937
2771458,0.5492961,0.5584812,-0.07661668
2771460,0.5492961,0.5584812,-0.07661668
2771463,0.5500081,0.5581307,-0.07661668
2771465,0.5500081,0.5581307,-0.07661668
2771468,0.5500081,0.5581307,-0.07661668
2771470,0.5503638,0.5584812,-0.07912937
2771473,0.5503638,0.5584812,-0.07912937
2771476,0.5500081,0.5574291,-0.07912937
2771478,0.5482264,0.556375,-0.07661668
2771481,0.5482264,0.556375,-0.07661668
2771483,0.5453635,0.5517841,-0.08156469
2771486,0.5439265,0.5503638,-0.08156469
2771488,0.5439265,0.5503638,-0.08156469
2771491,0.5406791,0.5471546,-0.08392937
2771494,0.5392296,0.5457222,-0.08622923
2771496,0.5392296,0.5457222,-0.08622923
2771500,0.5348573,0.5406791,-0.09278741
2771502,0.5348573,0.5406791,-0.09278741
2771505,0.533025,0.5392296,-0.09487279
2771507,0.533392,0.5395923,-0.1065312
2771510,0.533392,0.5395923,-0.1065312
2771513,0.533025,0.5395923,-0.1083524
2771515,0.533025,0.5395923,-0.1083524
2771518,0.533025,0.5395923,-0.1083524
2771520,0.533025,0.5395923,-0.1083524
2771523,0.5374122,0.5442861,-0.1170339
2771525,0.5374122,0.5442861,-0.1170339
2771528,0.5403171,0.5478694,-0.1219466
2771531,0.5510744,0.5581307,-0.132704
2771533,0.5510744,0.5581307,-0.132704
2771536,0.5619739,0.5685511,-0.1426525
2771538,0.5619739,0.5685511,-0.1426525
2771542,0.5736903,0.5801346,-0.1467098
2771544,0.5831623,0.589503,-0.1493534
2771547,0.5831623,0.589503,-0.1493534
2771550,0.6019843,0.6081289,-0.1570175
2771552,0.6113381,0.6170725,-0.1594904
2771555,0.6113381,0.6170725,-0.1594904
2771557,0.6314908,0.6373509,-0.1643245
2771560,0.6425489,0.6483091,-0.166689
2771562,0.6425489,0.6483091,-0.166689
2771565,0.6617518,0.6676395,-0.1701742
2771568,0.6705639,0.6760855,-0.1713202
2771570,0.6705639,0.6760855,-0.1713202
2771573,0.6977351,0.7035998,-0.1780411
2771575,0.6977351,0.7035998,-0.1780411
2771578,0.7083117,0.7140896,-0.1802258
2771580,0.7314168,0.7367479,-0.1866263
2771584,0.7314168,0.7367479,-0.1866263
2771587,0.7433581,0.7486043,-0.1887116
2771589,0.7648944,0.7699938,-0.1948336
2771592,0.7648944,0.7699938,-0.1948336
2771594,0.7750598,0.7798419,-0.1978235
2771597,0.7942618,0.798929,-0.2017412
2771600,0.7942618,0.798929,-0.2017412
2771602,0.8035691,0.8079404,-0.2036718
2771605,0.8194832,0.82377,-0.2074791
2771607,0.8194832,0.82377,-0.2074791
2771610,0.8268523,0.8311011,-0.20842
2771612,0.8268523,0.8311011,-0.20842
2771615,0.8334522,0.8374339,-0.2093567
2771618,0.8413968,0.8453411,-0.2112177
2771620,0.8413968,0.8453411,-0.2112177
2771623,0.8545501,0.858434,-0.2130625
2771625,0.8602557,0.8636609,-0.2148914
2771629,0.8602557,0.8636609,-0.2148914
2771631,0.8731248,0.8764802,-0.2148914
2771634,0.8800449,0.8833739,-0.2148914
2771637,0.8800449,0.8833739,-0.2148914
2771639,0.8860281,0.8895546,-0.2139789
2771642,0.8910931,0.8939433,-0.2158
2771644,0.8910931,0.8939433,-0.2158
2771647,0.8932863,0.8959111,-0.2158
2771649,0.9046055,0.906766,-0.2229358
2771652,0.9046055,0.906766,-0.2229358
2771655,0.9087062,0.9110718,-0.2246844
2771657,0.9087062,0.9110718,-0.2246844
2771660,0.9189842,0.9204736,-0.2306999
2771662,0.9215358,0.923021,-0.2349025
2771665,0.9215358,0.923021,-0.2349025
2771667,0.9242921,0.9253501,-0.2390311
2771671,0.9253501,0.9257729,-0.2478722
2771674,0.9253501,0.9257729,-0.2478722
2771676,0.9245038,0.9245038,-0.254109
2771679,0.9242921,0.9240804,-0.2564087
2771681,0.9242921,0.9240804,-0.2564087
2771684,0.916212,0.9147157,-0.2697954
2771686,0.9136455,0.9119305,-0.2755364
2771689,0.9136455,0.9119305,-0.2755364
2771692,0.9153573,0.9117159,-0.2907402
2771694,0.9153573,0.9117159,-0.2907402
2771697,0.9164255,0.9123595,-0.2947506
2771699,0.9213235,0.9157847,-0.3051875
2771702,0.9213235,0.9157847,-0.3051875
2771704,0.9261956,0.91941,-0.3127867
2771707,0.9343988,0.9251386,-0.3316129
2771710,0.9343988,0.9251386,-0.3316129
2771713,0.9379522,0.9276733,-0.3386196
2771716,0.9383693,0.9261956,-0.3483046
2771718,0.9383693,0.9261956,-0.3483046
2771721,0.9400361,0.9253501,-0.3626169
2771723,0.9352362,0.9181321,-0.373777
2771726,0.9352362,0.9181321,-0.373777
2771729,0.9289381,0.9080599,-0.3896677
2771731,0.9289381,0.9080599,-0.3896677
2771734,0.9247154,0.9009206,-0.4005627
2771736,0.9217481,0.8954742,-0.409739
2771739,0.9217481,0.8954742,-0.409739
2771741,0.9187712,0.8888945,-0.4196478
2771744,0.9149297,0.8802673,-0.4361108
2771747,0.9149297,0.8802673,-0.4361108
2771749,0.9078444,0.8690815,-0.4445539
2771752,0.8978747,0.8529457,-0.4575681
2771755,0.8978747,0.8529457,-0.4575681
2771758,0.8893346,0.8402332,-0.4656223
2771760,0.8827091,0.8301588,-0.4722982
2771763,0.8827091,0.8301588,-0.4722982
2771766,0.8784871,0.8197219,-0.4849715
2771768,0.8784871,0.8197219,-0.4849715
2771771,0.8791551,0.8180492,-0.4901886
2771773,0.8840382,0.8175707,-0.501241
2771776,0.8840382,0.8175707,-0.501241
2771778,0.8855863,0.8173313,-0.5059038
2771781,0.8875727,0.8170919,-0.5105241
2771784,0.8875727,0.8170919,-0.5105241
2771786,0.8904341,0.8166127,-0.5173771
2771789,0.892629,0.8175707,-0.5203939
2771791,0.892629,0.8175707,-0.5203939
2771794,0.8943809,0.8182884,-0.5218958
2771798,0.902006,0.8256681,-0.5252593
2771800,0.902006,0.8256681,-0.5252593
2771803,0.9069818,0.8303944,-0.5263757
2771805,0.9069818,0.8303944,-0.5263757
2771808,0.9183452,0.8420942,-0.5286014
2771810,0.9245038,0.8481144,-0.5297108
2771813,0.9245038,0.8481144,-0.5297108
2771816,0.9356545,0.8600281,-0.5311863
2771818,0.9404523,0.8652454,-0.5319225
2771821,0.9404523,0.8652454,-0.5319225
2771823,0.9489449,0.8744686,-0.5326577
2771826,0.9524438,0.8787099,-0.5322903
2771828,0.9524438,0.8787099,-0.5322903
2771831,0.9571576,0.8840382,-0.5308178
2771834,0.9583834,0.8864697,-0.53008
2771836,0.9583834,0.8864697,-0.53008
2771840,0.9600154,0.8904341,-0.5252593
2771842,0.9600154,0.8904341,-0.5252593
2771845,0.9610341,0.8921905,-0.5230194
2771847,0.9468806,0.8802673,-0.5147229
2771850,0.9468806,0.8802673,-0.5147229
2771853,0.9346082,0.8693066,-0.509757
2771855,0.9142877,0.8506485,-0.5016313
2771858,0.9142877,0.8506485,-0.5016313
2771860,0.8989637,0.8362648,-0.4961402
2771863,0.886911,0.8242449,-0.4941643
2771865,0.886911,0.8242449,-0.4941643
2771868,0.8684058,0.8057577,-0.4905876
2771871,0.8609378,0.798684,-0.4893896
2771873,0.8609378,0.798684,-0.4893896
2771876,0.8346253,0.772531,-0.4829499
2771878,0.8346253,0.772531,-0.4829499
2771881,0.8242449,0.7620752,-0.4809199
2771884,0.7950006,0.733287,-0.4735395
2771887,0.7950006,0.733287,-0.4735395
2771890,0.7833468,0.7217214,-0.4706381
2771892,0.7699938,0.708588,-0.4660423
2771895,0.7699938,0.708588,-0.4660423
2771897,0.7607903,0.6994157,-0.4614008
2771900,0.7569224,0.6966124,-0.4588492
2771902,0.7569224,0.6966124,-0.4588492
2771905,0.7506924,0.6915378,-0.4524074
2771908,0.7478197,0.6901216,-0.4489339
2771910,0.7478197,0.6901216,-0.4489339
2771913,0.7420408,0.6855699,-0.4441136
2771915,0.7420408,0.6855699,-0.4441136
2771918,0.7401926,0.6849989,-0.4405747
2771920,0.7354187,0.6827098,-0.4334104
2771923,0.7354187,0.6827098,-0.4334104
2771927,0.7346201,0.6864257,-0.4224361
2771929,0.733287,0.6869956,-0.4177785
2771932,0.733287,0.6869956,-0.4177785
2771934,0.7391344,0.6991359,-0.4029978
2771937,0.7404569,0.7027649,-0.3971285
2771939,0.7404569,0.7027649,-0.3971285
2771942,0.745461,0.7149112,-0.3800071
2771945,0.7467723,0.7184606,-0.373777
2771947,0.7467723,0.7184606,-0.373777
2771950,0.7433581,0.7219925,-0.3533245
2771952,0.7433581,0.7219925,-0.3533245
2771955,0.741777,0.7228051,-0.3460502
2771957,0.7457234,0.7314168,-0.3316129
2771960,0.7457234,0.7314168,-0.3316129
2771963,0.7472962,0.7362165,-0.3220336
2771965,0.747558,0.7383398,-0.3146578
2771969,0.747558,0.7383398,-0.3146578
2771971,0.747558,0.7415132,-0.3045456
2771974,0.7532945,0.7525149,-0.289391
2771976,0.7532945,0.7525149,-0.289391
2771979,0.7556288,0.7564052,-0.2832403
2771982,0.7750598,0.7803435,-0.2705197
2771984,0.7750598,0.7803435,-0.2705197
2771987,0.782347,0.7890712,-0.2654082
2771989,0.7977034,0.8079404,-0.2548778
2771992,0.7977034,0.8079404,-0.2548778
2771994,0.8030819,0.8146936,-0.2502292
2771997,0.8030819,0.8146936,-0.2502292
2772000,0.812529,0.8270888,-0.2398483
2772002,0.8187665,0.8355626,-0.2306999
2772005,0.8187665,0.8355626,-0.2306999
2772007,0.8213912,0.8397673,-0.2255535
2772011,0.8254311,0.8460353,-0.2176059
2772014,0.8254311,0.8460353,-0.2176059
2772016,0.8289794,0.8506485,-0.2093567
2772019,0.8346253,0.8577499,-0.1968319
2772021,0.8346253,0.8577499,-0.1968319
2772024,0.8383681,0.8625273,-0.1876719
2772026,0.844183,0.8695317,-0.174713
2772029,0.844183,0.8695317,-0.174713
2772032,0.8462666,0.8717791,-0.166689
2772034,0.8462666,0.8717791,-0.166689
2772037,0.8497278,0.8753631,-0.1545051
2772039,0.8586619,0.8842595,-0.1480375
2772042,0.8586619,0.8842595,-0.1480375
2772044,0.872228,0.8978747,-0.1384764
2772047,0.8941622,0.9191971,-0.1312212
2772050,0.8941622,0.9191971,-0.1312212
2772052,0.9080599,0.9329317,-0.1282043
2772056,0.9247154,0.9489449,-0.1219466
2772058,0.9247154,0.9489449,-0.1219466
2772061,0.9341894,0.957975,-0.1170339
2772063,0.9381608,0.9614412,-0.1153499
2772066,0.9381608,0.9614412,-0.1153499
2772069,0.9452258,0.9681343,-0.1136409
2772071,0.9452258,0.9681343,-0.1136409
2772074,0.9462603,0.9689425,-0.1119058
2772076,0.9495632,0.9715644,-0.1119058
2772079,0.9495632,0.9715644,-0.1119058
2772081,0.9514161,0.9735762,-0.1119058
2772084,0.9512104,0.9729732,-0.1153499
2772087,0.9512104,0.9729732,-0.1153499
2772089,0.9505931,0.971967,-0.1170339
2772092,0.9499753,0.9711614,-0.1203313
2772094,0.9499753,0.9711614,-0.1203313
2772098,0.9454328,0.9671232,-0.1235407
2772100,0.9427382,0.9640834,-0.1266688
2772103,0.9427382,0.9640834,-0.1266688
2772106,0.9366996,0.9583834,-0.1341704
2772108,0.9366996,0.9583834,-0.1341704
2772111,0.9337703,0.9553158,-0.1384764
2772113,0.923233,0.9448116,-0.1480375
2772116,0.923233,0.9448116,-0.1480375
2772118,0.916639,0.9379522,-0.1545051
2772121,0.9043891,0.9251386,-0.1678588
2772124,0.9043891,0.9251386,-0.1678588
2772126,0.899399,0.9196228,-0.1758294
2772129,0.9035233,0.922597,-0.191797
2772131,0.9035233,0.922597,-0.191797
2772134,0.9106421,0.9293592,-0.2017412
2772136,0.9172792,0.9339799,-0.2185032
2772140,0.9172792,0.9339799,-0.2185032
2772143,0.9177057,0.9335608,-0.2264194
2772145,0.9177057,0.9335608,-0.2264194
2772148,0.912574,0.9257729,-0.2398483
2772150,0.9078444,0.9198356,-0.2470816
2772153,0.9078444,0.9198356,-0.2470816
2772155,0.901789,0.9112865,-0.2556444
2772158,0.8744686,0.8818219,-0.2631872
2772161,0.8744686,0.8818219,-0.2631872
2772163,0.8645667,0.8708809,-0.2661444
2772166,0.8364988,0.8400003,-0.2748253
2772168,0.8364988,0.8400003,-0.2748253
2772171,0.8266156,0.8287433,-0.2783625
2772173,0.798684,0.7977034,-0.2900664
2772176,0.798684,0.7977034,-0.2900664
2772179,0.7883269,0.7863387,-0.2940859
2772182,0.7883269,0.7863387,-0.2940859
2772185,0.7684676,0.7641266,-0.3032579
2772187,0.7610474,0.7553698,-0.3077414
2772190,0.7522548,0.745461,-0.3109043
2772192,0.7451985,0.7375443,-0.3140353
2772195,0.7271236,0.7170975,-0.3202056
2772198,0.7271236,0.7170975,-0.3202056
2772200,0.7168246,0.7060983,-0.3232465
2772203,0.7013714,0.6884183,-0.3280534
2772205,0.7013714,0.6884183,-0.3280534
2772208,0.6921035,0.6778198,-0.3304307
2772211,0.6772422,0.6611602,-0.3345502
2772213,0.6772422,0.6611602,-0.3345502
2772216,0.6664661,0.6498165,-0.3363003
2772218,0.6664661,0.6498165,-0.3363003
2772221,0.6507192,0.6321102,-0.339197
2772224,0.6558113,0.6348901,-0.3454843
2772227,0.6558113,0.6348901,-0.3454843
2772230,0.6626383,0.6388841,-0.3555328
2772232,0.6792617,0.652221,-0.3674413
2772235,0.6792617,0.652221,-0.3674413
2772237,0.6847132,0.6564078,-0.3722032
2772240,0.7002546,0.6702721,-0.3805216
2772242,0.7002546,0.6702721,-0.3805216
2772245,0.7058211,0.6746368,-0.3841043
2772248,0.7168246,0.6844273,-0.3891652
2772250,0.7168246,0.6844273,-0.3891652
2772253,0.7206361,0.688134,-0.3916712
2772255,0.7206361,0.688134,-0.3916712
2772258,0.7273927,0.6943616,-0.3951527
2772260,0.7303458,0.6966124,-0.3961419
2772263,0.7303458,0.6966124,-0.3961419
2772267,0.7348864,0.7016503,-0.3961419
2772269,0.7380747,0.7058211,-0.3951527
2772272,0.7380747,0.7058211,-0.3951527
2772274,0.7388696,0.7072059,-0.3936644
2772277,0.7393991,0.7091401,-0.3911712
2772279,0.7393991,0.7091401,-0.3911712
2772282,0.7404569,0.711069,-0.3891652
2772285,0.741777,0.7132671,-0.3861367
2772287,0.741777,0.7132671,-0.3861367
2772290,0.7459858,0.7200928,-0.3810355
2772292,0.7525149,0.7295417,-0.3748225
2772295,0.7525149,0.7295417,-0.3748225
2772297,0.7556288,0.7338206,-0.3706227
2772300,0.7556288,0.7338206,-0.3706227
2772303,0.7600183,0.7401926,-0.3642322
2772305,0.7656615,0.7478197,-0.360452
2772308,0.7656615,0.7478197,-0.360452
2772311,0.774302,0.7582139,-0.3533245
2772314,0.7793398,0.7648944,-0.3483046
2772316,0.7793398,0.7648944,-0.3483046
2772319,0.7868362,0.7737964,-0.3403488
2772322,0.7927822,0.7815963,-0.3333784
2772324,0.7927822,0.7815963,-0.3333784
2772327,0.8013745,0.7922885,-0.3238513
2772329,0.8050289,0.7969672,-0.3171355
2772332,0.8050289,0.7969672,-0.3171355
2772334,0.8103587,0.8042993,-0.3083766
2772337,0.8103587,0.8042993,-0.3083766
2772340,0.8122882,0.8067285,-0.3051875
2772342,0.8166127,0.8132511,-0.2967354
2772345,0.8166127,0.8132511,-0.2967354
2772347,0.8182884,0.8154138,-0.2940859
2772350,0.8275619,0.8249568,-0.2887141
2772353,0.8275619,0.8249568,-0.2887141
2772356,0.8303944,0.828271,-0.2866737
2772359,0.8275619,0.8266156,-0.2783625
2772361,0.8275619,0.8266156,-0.2783625
2772364,0.8325126,0.8334522,-0.272681
2772366,0.8381346,0.839068,-0.2712421
2772369,0.8381346,0.839068,-0.2712421
2772371,0.8425589,0.8439512,-0.2697954
2772374,0.8425589,0.8439512,-0.2697954
2772377,0.8556943,0.8577499,-0.2676108
2772379,0.8607104,0.8627541,-0.268341
2772382,0.8607104,0.8627541,-0.268341
2772384,0.8645667,0.8670527,-0.2668786
2772387,0.8650193,0.8684058,-0.2661444
2772389,0.8650193,0.8684058,-0.2661444
2772392,0.8643403,0.8677295,-0.2661444
2772396,0.8643403,0.867504,-0.2668786
2772398,0.8643403,0.867504,-0.2668786
2772401,0.8550079,0.857978,-0.2676108
2772403,0.845804,0.848345,-0.2690692
2772406,0.845804,0.848345,-0.2690692
2772408,0.8411642,0.8432553,-0.2697954
2772411,0.8411642,0.8432553,-0.2697954
2772414,0.8348597,0.8367326,-0.2712421
2772416,0.8194832,0.8211529,-0.2733977
2772419,0.8194832,0.8211529,-0.2733977
2772421,0.8139727,0.8156537,-0.2741124
2772424,0.7999081,0.8003972,-0.2804634
2772427,0.7999081,0.8003972,-0.2804634
2772429,0.7947544,0.7950006,-0.2825486
2772432,0.7838463,0.7825971,-0.289391
2772434,0.7838463,0.7825971,-0.289391
2772438,0.7800927,0.7785863,-0.2914124
2772440,0.776825,0.7745547,-0.2940859
2772443,0.776825,0.7745547,-0.2940859
2772446,0.7760689,0.7735435,-0.2940859
2772448,0.7760689,0.7735435,-0.2940859
2772451,0.7808449,0.7778319,-0.2980514
2772453,0.7845948,0.7805943,-0.3000144
2772456,0.7845948,0.7805943,-0.3000144
2772458,0.7843454,0.7803435,-0.3019647
2772461,0.7845948,0.7798419,-0.3051875
2772464,0.7845948,0.7798419,-0.3051875
2772466,0.7863387,0.7810954,-0.3051875
2772469,0.7863387,0.7810954,-0.3051875
2772471,0.7863387,0.7810954,-0.3051875
2772474,0.7863387,0.7810954,-0.3051875
2772476,0.7875819,0.782347,-0.3058279
2772480,0.7875819,0.782347,-0.3058279
2772483,0.7893192,0.7833468,-0.3071049
2772485,0.7893192,0.7833468,-0.3071049
2772488,0.7898148,0.7835966,-0.3083766
2772490,0.7880787,0.7808449,-0.3109043
2772493,0.7880787,0.7808449,-0.3109043
2772495,0.7873334,0.7800927,-0.3109043
2772498,0.7868362,0.7793398,-0.3127867
2772501,0.7868362,0.7793398,-0.3127867
2772503,0.7868362,0.7793398,-0.3134116
2772506,0.7870849,0.7790887,-0.3134116
2772508,0.7870849,0.7790887,-0.3134116
2772511,0.7873334,0.7793398,-0.3134116
2772513,0.7845948,0.776825,-0.3134116
2772516,0.7845948,0.776825,-0.3134116
2772519,0.7828471,0.7750598,-0.3140353
2772521,0.7828471,0.7750598,-0.3140353
2772525,0.7783349,0.770502,-0.3134116
2772527,0.7760689,0.7679582,-0.3127867
2772530,0.7760689,0.7679582,-0.3127867
2772532,0.7737964,0.7654059,-0.311533
2772535,0.7732905,0.7654059,-0.3109043
2772538,0.7732905,0.7654059,-0.3109043
2772540,0.7735435,0.7656615,-0.309643
2772543,0.774302,0.7666831,-0.3090104
2772545,0.774302,0.7666831,-0.3090104
2772548,0.7798419,0.7727842,-0.3064671
2772550,0.7835966,0.7770769,-0.3039024
2772553,0.7835966,0.7770769,-0.3039024
2772556,0.7870849,0.7813459,-0.3000144
2772558,0.7870849,0.7813459,-0.3000144
2772561,0.7875819,0.7818466,-0.2987072
2772563,0.7905577,0.7855918,-0.2980514
2772567,0.7905577,0.7855918,-0.2980514
2772569,0.7925354,0.7873334,-0.2980514
2772572,0.7940154,0.7883269,-0.2987072
2772575,0.7940154,0.7883269,-0.2987072
2772577,0.7930291,0.7873334,-0.2987072
2772580,0.7917944,0.7855918,-0.3000144
2772582,0.7917944,0.7855918,-0.3000144
2772585,0.7908052,0.7840959,-0.3006659
2772587,0.7885751,0.7813459,-0.3039024
2772590,0.7885751,0.7813459,-0.3039024
2772593,0.7875819,0.7798419,-0.3058279
2772595,0.7875819,0.7798419,-0.3058279
2772598,0.7912999,0.7835966,-0.3071049
2772600,0.7950006,0.7870849,-0.3071049
2772603,0.7950006,0.7870849,-0.3071049
2772605,0.7981939,0.7903101,-0.3090104
2772609,0.798439,0.7905577,-0.309643
2772612,0.798439,0.7905577,-0.309643
2772614,0.7974581,0.7888232,-0.3146578
2772617,0.796476,0.7875819,-0.3171355
2772619,0.796476,0.7875819,-0.3171355
2772622,0.7942618,0.7845948,-0.3220336
2772625,0.7930291,0.783097,-0.324455
2772627,0.7930291,0.783097,-0.324455
2772630,0.7922885,0.7820969,-0.3286494
2772632,0.7925354,0.7818466,-0.3304307
2772635,0.7925354,0.7818466,-0.3304307
2772637,0.7950006,0.7838463,-0.3345502
2772640,0.7950006,0.7838463,-0.3345502
2772643,0.7972127,0.7853427,-0.3368816
2772645,0.7999081,0.7878303,-0.339197
2772648,0.7999081,0.7878303,-0.339197
2772651,0.8021067,0.7895671,-0.3409232
2772654,0.8050289,0.7922885,-0.3426407
2772656,0.8050289,0.7922885,-0.3426407
2772659,0.8064859,0.7935224,-0.3432113
2772662,0.8047857,0.7912999,-0.3443497
2772664,0.8047857,0.7912999,-0.3443497
2772667,0.8025945,0.7888232,-0.3454843
2772669,0.7999081,0.7855918,-0.3466151
2772672,0.7999081,0.7855918,-0.3466151
2772674,0.7959845,0.7810954,-0.3483046
2772677,0.7959845,0.7810954,-0.3483046
2772680,0.7905577,0.7745547,-0.3499859
2772682,0.7878303,0.7717707,-0.3499859
2772685,0.7878303,0.7717707,-0.3499859
2772687,0.7845948,0.7684676,-0.3511023
2772690,0.783097,0.7671934,-0.3494264
2772692,0.783097,0.7671934,-0.3494264
2772696,0.7810954,0.7651502,-0.3483046
2772699,0.7833468,0.7682129,-0.3460502
2772701,0.7833468,0.7682129,-0.3460502
2772704,0.7865875,0.772531,-0.3426407
2772706,0.7920414,0.7783349,-0.3397734
2772709,0.7920414,0.7783349,-0.3397734
2772711,0.7940154,0.7805943,-0.3386196
2772714,0.7940154,0.7805943,-0.3386196
2772717,0.7959845,0.7833468,-0.3368816
2772719,0.7996635,0.7875819,-0.3351346
2772722,0.7996635,0.7875819,-0.3351346
2772724,0.798684,0.7870849,-0.3339648
2772727,0.7979487,0.7863387,-0.3322025
2772729,0.7979487,0.7863387,-0.3322025
2772732,0.7994187,0.7878303,-0.3316129
2772736,0.8013745,0.7903101,-0.3304307
2772738,0.8013745,0.7903101,-0.3304307
2772741,0.8016186,0.7903101,-0.329838
2772743,0.8025945,0.7905577,-0.329838
2772746,0.8025945,0.7905577,-0.329838
2772748,0.8038125,0.7915472,-0.3292442
2772751,0.8038125,0.7915472,-0.3292442
2772754,0.8057577,0.7927822,-0.3304307
2772756,0.8016186,0.7883269,-0.3322025
2772759,0.8016186,0.7883269,-0.3322025
2772761,0.7952467,0.7815963,-0.3339648
2772764,0.7930291,0.7788376,-0.3345502
2772766,0.7930291,0.7788376,-0.3345502
2772769,0.7999081,0.7858408,-0.332791
2772772,0.8030819,0.7895671,-0.332791
2772774,0.8030819,0.7895671,-0.332791
2772777,0.8081825,0.7945082,-0.3322025
2772780,0.8081825,0.7947544,-0.3333784
2772783,0.8081825,0.7947544,-0.3333784
2772785,0.8084246,0.7950006,-0.3351346
2772788,0.8084246,0.7950006,-0.3351346
2772791,0.8086666,0.7947544,-0.3357179
2772793,0.8072135,0.7930291,-0.3380413
2772796,0.8072135,0.7930291,-0.3380413
2772798,0.8067285,0.7925354,-0.339197
2772801,0.8064859,0.7922885,-0.3397734
2772803,0.8064859,0.7922885,-0.3397734
2772806,0.8028382,0.7875819,-0.343781
2772809,0.8001527,0.7840959,-0.3460502
2772811,0.8001527,0.7840959,-0.3460502
2772814,0.7954926,0.7783349,-0.3499859
2772816,0.7930291,0.7758168,-0.3511023
2772819,0.7930291,0.7758168,-0.3511023
2772822,0.7885751,0.7707559,-0.3533245
2772825,0.7885751,0.7707559,-0.3533245
2772828,0.7865875,0.7682129,-0.354982
2772830,0.7820969,0.7625886,-0.3571801
2772833,0.7820969,0.7625886,-0.3571801
2772835,0.7793398,0.7597608,-0.358274
2772838,0.7790887,0.7595032,-0.3566318
2772841,0.7790887,0.7595032,-0.3566318
2772843,0.7820969,0.7631016,-0.354982
2772846,0.7833468,0.7641266,-0.3544303
2772848,0.7833468,0.7641266,-0.3544303
2772851,0.7770769,0.7569224,-0.3555328
2772853,0.7745547,0.7540734,-0.3560827
2772856,0.7745547,0.7540734,-0.3560827
2772859,0.7755645,0.7558876,-0.3527702
2772861,0.7755645,0.7558876,-0.3527702
2772865,0.7758168,0.7564052,-0.3522151
2772867,0.774302,0.7558876,-0.3494264
2772870,0.774302,0.7558876,-0.3494264
2772872,0.7748073,0.7576976,-0.3471792
2772875,0.7763211,0.7595032,-0.3466151
2772878,0.7763211,0.7595032,-0.3466151
2772880,0.7798419,0.7633579,-0.343781
2772883,0.7818466,0.7659171,-0.3432113
2772885,0.7818466,0.7659171,-0.3432113
2772888,0.7835966,0.7677034,-0.3426407
2772890,0.7835966,0.7679582,-0.3426407
2772893,0.7835966,0.7679582,-0.3426407
2772896,0.7835966,0.7677034,-0.3432113
2772898,0.7835966,0.7677034,-0.3432113
2772901,0.7865875,0.7715172,-0.3414966
2772903,0.7875819,0.7722777,-0.3409232
2772907,0.7875819,0.7722777,-0.3409232
2772909,0.783097,0.7679582,-0.3414966
2772912,0.7815963,0.7659171,-0.3420692
2772915,0.7815963,0.7659171,-0.3420692
2772917,0.7883269,0.774302,-0.3380413
2772920,0.7910526,0.7770769,-0.3368816
2772922,0.7910526,0.7770769,-0.3368816
2772925,0.7994187,0.7863387,-0.3333784
2772927,0.8045425,0.7922885,-0.3304307
2772930,0.8045425,0.7922885,-0.3304307
2772933,0.8057577,0.7935224,-0.329838
2772935,0.8057577,0.7935224,-0.329838
2772938,0.8076981,0.7952467,-0.3304307
2772940,0.8096339,0.7972127,-0.3292442
2772943,0.8096339,0.7972127,-0.3292442
2772945,0.8122882,0.8001527,-0.3280534
2772948,0.8035691,0.7905577,-0.3316129
2772952,0.8035691,0.7905577,-0.3316129
2772954,0.8003972,0.7868362,-0.3333784
2772957,0.7981939,0.7843454,-0.3345502
2772959,0.7981939,0.7843454,-0.3345502
2772962,0.7977034,0.7838463,-0.3357179
2772964,0.8006416,0.7865875,-0.3363003
2772967,0.8006416,0.7865875,-0.3363003
2772970,0.8013745,0.7875819,-0.3363003
2772972,0.7969672,0.7818466,-0.339197
2772975,0.7969672,0.7818466,-0.339197
2772977,0.7950006,0.7798419,-0.3414966
2772980,0.7950006,0.7798419,-0.3414966
2772982,0.7937689,0.7783349,-0.3420692
2772985,0.7932757,0.7773286,-0.3432113
2772988,0.7932757,0.7773286,-0.3432113
2772990,0.7883269,0.7717707,-0.3466151
2772994,0.7863387,0.7697397,-0.3466151
2772996,0.7863387,0.7697397,-0.3466151
2772999,0.7820969,0.7643827,-0.3494264
2773001,0.7803435,0.7625886,-0.3494264
2773004,0.7803435,0.7625886,-0.3494264
2773007,0.7805943,0.7625886,-0.3499859
2773009,0.7815963,0.7636142,-0.3511023
2773012,0.7815963,0.7636142,-0.3511023
2773014,0.7900625,0.7727842,-0.3488659
2773017,0.7900625,0.7727842,-0.3488659
2773019,0.8013745,0.7855918,-0.3449174
2773022,0.8003972,0.7843454,-0.3460502
2773025,0.8003972,0.7843454,-0.3460502
2773027,0.798929,0.7833468,-0.3460502
2773030,0.798684,0.783097,-0.3460502
2773032,0.798684,0.783097,-0.3460502
2773036,0.7972127,0.7818466,-0.3449174
2773038,0.7969672,0.7815963,-0.3443497
2773041,0.7969672,0.7815963,-0.3443497
2773044,0.798684,0.7845948,-0.3403488
2773046,0.798439,0.7853427,-0.3386196
2773049,0.798439,0.7853427,-0.3386196
2773051,0.798439,0.7845948,-0.3380413
2773054,0.798439,0.7845948,-0.3380413
2773057,0.7979487,0.7855918,-0.3363003
2773059,0.798439,0.7860898,-0.3357179
2773062,0.798439,0.7860898,-0.3357179
2773064,0.8001527,0.7880787,-0.3333784
2773067,0.8023506,0.7910526,-0.3310224
2773069,0.8023506,0.7910526,-0.3310224
2773072,0.8030819,0.7920414,-0.329838
2773075,0.8052719,0.7950006,-0.3274564
2773078,0.8052719,0.7950006,-0.3274564
2773081,0.8064859,0.7962303,-0.3262592
2773083,0.8091505,0.7999081,-0.324455
2773086,0.8091505,0.7999081,-0.324455
2773088,0.8103587,0.8011303,-0.324455
2773091,0.8103587,0.8011303,-0.324455
2773094,0.8103587,0.8016186,-0.3232465
2773096,0.8118062,0.8035691,-0.3208161
2773099,0.8118062,0.8035691,-0.3208161
2773101,0.8130105,0.8052719,-0.3202056
2773104,0.8175707,0.8101172,-0.3183671
2773106,0.8175707,0.8101172,-0.3183671
2773109,0.8206762,0.8132511,-0.3165179
2773112,0.8254311,0.8180492,-0.315899
2773114,0.8254311,0.8180492,-0.315899
2773117,0.82377,0.8170919,-0.3127867
2773120,0.8232948,0.8168523,-0.311533
2773123,0.8232948,0.8168523,-0.311533
2773125,0.8206762,0.8149337,-0.309643
2773128,0.8206762,0.8149337,-0.309643
2773131,0.8201992,0.814213,-0.3090104
2773133,0.8199606,0.8139727,-0.3090104
2773136,0.8199606,0.8139727,-0.3090104
2773138,0.8197219,0.8139727,-0.3090104
2773141,0.8180492,0.8122882,-0.3090104
2773143,0.8180492,0.8122882,-0.3090104
2773146,0.8180492,0.8115651,-0.3090104
2773149,0.8156537,0.8093922,-0.3077414
2773151,0.8156537,0.8093922,-0.3077414
2773154,0.8149337,0.8084246,-0.3077414
2773156,0.8079404,0.8016186,-0.3077414
2773159,0.8079404,0.8016186,-0.3077414
2773161,0.8035691,0.7967216,-0.309643
2773165,0.8035691,0.7967216,-0.309643
2773168,0.8018627,0.7947544,-0.3102743
2773170,0.7994187,0.7925354,-0.3121605
2773173,0.7994187,0.7925354,-0.3121605
2773175,0.7969672,0.7890712,-0.3134116
2773178,0.7935224,0.7850935,-0.3165179
2773180,0.7935224,0.7850935,-0.3165179
2773183,0.7930291,0.7840959,-0.3195939
2773186,0.7927822,0.7825971,-0.3226406
2773188,0.7927822,0.7825971,-0.3226406
2773191,0.7895671,0.7783349,-0.3274564
2773193,0.7883269,0.776825,-0.3286494
2773196,0.7883269,0.776825,-0.3286494
2773198,0.7835966,0.7715172,-0.3304307
2773201,0.7835966,0.7715172,-0.3304307
2773204,0.7818466,0.7694854,-0.3316129
2773207,0.7780834,0.7654059,-0.3345502
2773210,0.7753122,0.7618184,-0.3363003
2773212,0.7730374,0.7592455,-0.3374619
2773215,0.7648944,0.749388,-0.3426407
2773217,0.7648944,0.749388,-0.3426407
2773220,0.7618184,0.7457234,-0.343781
2773223,0.7571809,0.7401926,-0.3460502
2773225,0.7571809,0.7401926,-0.3460502
2773228,0.7556288,0.7380747,-0.3471792
2773230,0.7504317,0.7319516,-0.3483046
2773233,0.7504317,0.7319516,-0.3483046
2773235,0.747558,0.7287365,-0.3494264
2773238,0.747558,0.7287365,-0.3494264
2773241,0.7430948,0.7244276,-0.3499859
2773243,0.7401926,0.7214502,-0.3499859
2773246,0.7401926,0.7214502,-0.3499859
2773249,0.7409853,0.7217214,-0.3511023
2773252,0.7420408,0.7217214,-0.3527702
2773255,0.7420408,0.7217214,-0.3527702
2773257,0.7415132,0.7209076,-0.3538778
2773260,0.7404569,0.719821,-0.354982
2773262,0.7404569,0.719821,-0.354982
2773265,0.7423044,0.7209076,-0.3571801
2773267,0.7428315,0.7209076,-0.3571801
2773270,0.7428315,0.7209076,-0.3571801
2773273,0.7444103,0.7222635,-0.3577275
2773275,0.7444103,0.7222635,-0.3577275
2773278,0.7451985,0.7228051,-0.3571801
2773280,0.7467723,0.7244276,-0.3577275
2773283,0.7467723,0.7244276,-0.3577275
2773285,0.7470343,0.7246976,-0.3566318
2773288,0.7451985,0.7230757,-0.3560827
2773292,0.7451985,0.7230757,-0.3560827
2773294,0.7433581,0.7217214,-0.3538778
2773297,0.7446731,0.7236168,-0.3516591
2773299,0.7446731,0.7236168,-0.3516591
2773302,0.7470343,0.7260464,-0.3499859
2773304,0.7491269,0.729005,-0.3483046
2773307,0.7491269,0.729005,-0.3483046
2773310,0.7501709,0.7300779,-0.3471792
2773312,0.7506924,0.7306137,-0.3471792
2773315,0.7506924,0.7306137,-0.3471792
2773317,0.7569224,0.7380747,-0.343781
2773320,0.7569224,0.7380747,-0.343781
2773322,0.7595032,0.7407211,-0.3420692
2773325,0.7659171,0.7486043,-0.3386196
2773328,0.7659171,0.7486043,-0.3386196
2773330,0.7684676,0.751474,-0.3368816
2773334,0.7753122,0.7597608,-0.3333784
2773336,0.7753122,0.7597608,-0.3333784
2773339,0.7788376,0.7638705,-0.3316129
2773341,0.7795909,0.7648944,-0.329838
2773344,0.7795909,0.7648944,-0.329838
2773347,0.7770769,0.7625886,-0.3292442
2773349,0.774302,0.7600183,-0.3286494
2773352,0.774302,0.7600183,-0.3286494
2773354,0.7671934,0.7527748,-0.3280534
2773357,0.7671934,0.7527748,-0.3280534
2773359,0.7597608,0.7451985,-0.3286494
2773362,0.7569224,0.7423044,-0.3286494
2773365,0.7569224,0.7423044,-0.3286494
2773367,0.7535542,0.7386047,-0.3292442
2773370,0.7486043,0.7335538,-0.3304307
2773372,0.7486043,0.7335538,-0.3304307
2773376,0.7441474,0.729005,-0.3316129
2773378,0.7380747,0.7219925,-0.332791
2773381,0.7380747,0.7219925,-0.332791
2773384,0.7372789,0.7209076,-0.3345502
2773386,0.7364823,0.7187329,-0.3380413
2773389,0.7364823,0.7187329,-0.3380413
2773391,0.7354187,0.7168246,-0.3414966
2773394,0.7354187,0.7168246,-0.3414966
2773396,0.7354187,0.7162784,-0.3432113
2773399,0.7281993,0.7074825,-0.3477423
2773402,0.7281993,0.7074825,-0.3477423
2773404,0.7236168,0.7024865,-0.3505445
2773407,0.7236168,0.7024865,-0.3505445
2773409,0.7236168,0.7024865,-0.3505445
2773412,0.7236168,0.7024865,-0.3505445
2773414,0.7244276,0.7019292,-0.3527702
2773417,0.7244276,0.7019292,-0.3527702
2773421,0.7246976,0.7019292,-0.354982
2773423,0.7260464,0.7030433,-0.3571801
2773426,0.7260464,0.7030433,-0.3571801
2773428,0.7284679,0.7041557,-0.3599087
2773431,0.7284679,0.7041557,-0.3599087
2773433,0.7260464,0.7016503,-0.3615361
2773436,0.7222635,0.6968932,-0.3636945
2773439,0.7222635,0.6968932,-0.3636945
2773441,0.719821,0.6935157,-0.365305
2773444,0.7187329,0.6926687,-0.365305
2773446,0.7187329,0.6926687,-0.365305
2773449,0.7168246,0.6906884,-0.365305
2773451,0.7160051,0.6898379,-0.365305
2773454,0.7160051,0.6898379,-0.365305
2773457,0.7181882,0.6923862,-0.364769
2773459,0.7203645,0.6952065,-0.3642322
2773463,0.7203645,0.6952065,-0.3642322
2773465,0.7225344,0.6982958,-0.360452
2773468,0.7225344,0.6982958,-0.360452
2773471,0.7233464,0.6994157,-0.3593647
2773473,0.7252374,0.7022079,-0.3566318
2773476,0.7252374,0.7022079,-0.3566318
2773478,0.7268545,0.7052664,-0.3533245
2773481,0.7298098,0.7083117,-0.3522151
2773483,0.7298098,0.7083117,-0.3522151
2773486,0.7340872,0.7129927,-0.3516591
2773489,0.7367479,0.7162784,-0.3505445
2773491,0.7367479,0.7162784,-0.3505445
2773494,0.7412493,0.7209076,-0.3488659
2773496,0.7438844,0.7244276,-0.3471792
2773499,0.7438844,0.7244276,-0.3471792
2773501,0.747558,0.7292733,-0.3443497
2773505,0.747558,0.7292733,-0.3443497
2773508,0.7488656,0.7306137,-0.3420692
2773510,0.7504317,0.7327532,-0.3403488
2773513,0.7504317,0.7327532,-0.3403488
2773515,0.7504317,0.7330202,-0.339197
2773518,0.749649,0.7335538,-0.3363003
2773520,0.749649,0.7335538,-0.3363003
2773523,0.7509531,0.7351527,-0.3357179
2773526,0.7527748,0.7375443,-0.3339648
2773528,0.7527748,0.7375443,-0.3339648
2773531,0.7532945,0.7378095,-0.332791
2773533,0.7527748,0.7383398,-0.3316129
2773536,0.7527748,0.7383398,-0.3316129
2773538,0.7519946,0.7370135,-0.3316129
2773541,0.7519946,0.7370135,-0.3316129
2773544,0.7509531,0.7364823,-0.3316129
2773547,0.7499101,0.7343537,-0.3345502
2773550,0.7499101,0.7343537,-0.3345502
2773552,0.749388,0.7335538,-0.3357179
2773555,0.7491269,0.7324861,-0.3380413
2773557,0.7491269,0.7324861,-0.3380413
2773560,0.7488656,0.7316842,-0.3386196
2773563,0.7478197,0.7303458,-0.3403488
2773565,0.7478197,0.7303458,-0.3403488
2773568,0.747558,0.7292733,-0.3426407
2773570,0.7438844,0.7255072,-0.343781
2773573,0.7438844,0.7255072,-0.343781
2773575,0.7415132,0.7228051,-0.3443497
2773578,0.7415132,0.7228051,-0.3443497
2773581,0.7393991,0.719821,-0.3466151
2773583,0.7386047,0.7187329,-0.3477423
2773586,0.7386047,0.7187329,-0.3477423
2773588,0.7372789,0.7170975,-0.3488659
2773592,0.7370135,0.7165515,-0.3488659
2773594,0.7370135,0.7165515,-0.3488659
2773597,0.7380747,0.7181882,-0.3494264
2773600,0.7401926,0.7203645,-0.3505445
2773602,0.7401926,0.7203645,-0.3505445
2773605,0.7412493,0.721179,-0.3505445
2773607,0.741777,0.7217214,-0.3522151
2773610,0.741777,0.7217214,-0.3522151
2773612,0.7428315,0.7217214,-0.3533245
2773615,0.7399282,0.7187329,-0.354982
2773618,0.7399282,0.7187329,-0.354982
2773620,0.7388696,0.717643,-0.354982
2773623,0.7388696,0.717643,-0.354982
2773625,0.7383398,0.7168246,-0.3538778
2773628,0.7380747,0.7170975,-0.3533245
2773630,0.7380747,0.7170975,-0.3533245
2773634,0.7372789,0.7170975,-0.3505445
2773637,0.7367479,0.7170975,-0.3488659
2773639,0.7367479,0.7170975,-0.3488659
2773642,0.7367479,0.7170975,-0.3483046
2773644,0.7364823,0.7170975,-0.3477423
2773647,0.7364823,0.7170975,-0.3477423
2773649,0.7391344,0.7187329,-0.3499859
2773652,0.7393991,0.719821,-0.3499859
2773655,0.7393991,0.719821,-0.3499859
2773657,0.7401926,0.7200928,-0.3499859
2773660,0.7401926,0.7200928,-0.3499859
2773662,0.7404569,0.7206361,-0.3499859
2773665,0.7412493,0.721179,-0.3494264
2773668,0.7412493,0.721179,-0.3494264
2773670,0.7415132,0.7214502,-0.3494264
2773673,0.7430948,0.7228051,-0.3494264
2773676,0.7430948,0.7228051,-0.3494264
2773679,0.7451985,0.7249676,-0.3494264
2773681,0.7470343,0.7273927,-0.3477423
2773684,0.7470343,0.7273927,-0.3477423
2773687,0.747558,0.7281993,-0.3483046
2773689,0.7504317,0.7311491,-0.3466151
2773692,0.7504317,0.7311491,-0.3466151
2773694,0.7512136,0.7316842,-0.3454843
2773697,0.7512136,0.7316842,-0.3454843
2773699,0.7551107,0.7367479,-0.3432113
2773702,0.7566639,0.7378095,-0.3426407
2773705,0.7566639,0.7378095,-0.3426407
2773707,0.7569224,0.7380747,-0.3426407
2773710,0.7569224,0.7380747,-0.3426407
2773712,0.7569224,0.7380747,-0.3426407
2773715,0.7587299,0.7401926,-0.3414966
2773718,0.7613045,0.7433581,-0.3403488
2773721,0.7613045,0.7433581,-0.3403488
2773724,0.7610474,0.7433581,-0.339197
2773726,0.7602757,0.7433581,-0.3380413
2773729,0.7602757,0.7433581,-0.3380413
2773731,0.758472,0.7415132,-0.3368816
2773734,0.758472,0.7415132,-0.3368816
2773736,0.7556288,0.7388696,-0.3351346
2773739,0.7532945,0.7372789,-0.3333784
2773742,0.7532945,0.7372789,-0.3333784
2773744,0.7501709,0.7351527,-0.3292442
2773747,0.7491269,0.7346201,-0.3280534
2773749,0.7491269,0.7346201,-0.3280534
2773752,0.747558,0.7335538,-0.3256589
2773754,0.7519946,0.7380747,-0.3238513
2773757,0.7519946,0.7380747,-0.3238513
2773761,0.7548515,0.741777,-0.3220336
2773763,0.7566639,0.7436213,-0.3220336
2773766,0.7566639,0.7436213,-0.3220336
2773768,0.7558876,0.7428315,-0.3226406
2773771,0.7558876,0.7428315,-0.3226406
2773773,0.7571809,0.742568,-0.3256589
2773776,0.7587299,0.7438844,-0.3286494
2773779,0.7587299,0.7438844,-0.3286494
2773781,0.7587299,0.7436213,-0.3292442
2773784,0.7589878,0.7430948,-0.3316129
2773786,0.7589878,0.7430948,-0.3316129
2773789,0.7589878,0.7428315,-0.332791
2773791,0.760533,0.7446731,-0.3322025
2773794,0.760533,0.7446731,-0.3322025
2773797,0.7600183,0.7438844,-0.3333784
2773799,0.7592455,0.7430948,-0.3345502
2773803,0.7592455,0.7430948,-0.3345502
2773805,0.7595032,0.7428315,-0.3351346
2773808,0.7595032,0.7428315,-0.3351346
2773810,0.7553698,0.7378095,-0.339197
2773813,0.7532945,0.7362165,-0.3403488
2773816,0.7532945,0.7362165,-0.3403488
2773818,0.749649,0.7311491,-0.3432113
2773821,0.7480813,0.7300779,-0.343781
2773823,0.7480813,0.7300779,-0.343781
2773826,0.7569224,0.7380747,-0.3443497
2773828,0.7620752,0.7436213,-0.3454843
2773831,0.7620752,0.7436213,-0.3454843
2773834,0.7641266,0.7457234,-0.3454843
2773836,0.7648944,0.7472962,-0.3449174
2773839,0.7648944,0.7472962,-0.3449174
2773841,0.7679582,0.7501709,-0.3460502
2773844,0.7679582,0.7501709,-0.3460502
2773847,0.7689767,0.7517344,-0.3454843
2773850,0.7720242,0.7548515,-0.3454843
2773853,0.7720242,0.7548515,-0.3454843
2773855,0.7748073,0.7576976,-0.3449174
2773858,0.776825,0.7592455,-0.3443497
2773860,0.776825,0.7592455,-0.3443497
2773863,0.7788376,0.7620752,-0.3443497
2773865,0.7798419,0.7633579,-0.343781
2773868,0.7798419,0.7633579,-0.343781
2773871,0.7840959,0.7674484,-0.3432113
2773873,0.7865875,0.7699938,-0.3426407
2773876,0.7865875,0.7699938,-0.3426407
2773878,0.7888232,0.7722777,-0.3432113
2773881,0.7888232,0.7722777,-0.3432113
2773884,0.7895671,0.772531,-0.3426407
2773886,0.7898148,0.7730374,-0.343781
2773890,0.7898148,0.7730374,-0.343781
2773892,0.7895671,0.7727842,-0.3426407
2773895,0.7952467,0.7785863,-0.3426407
2773897,0.7952467,0.7785863,-0.3426407
2773900,0.7991739,0.7833468,-0.3426407
2773903,0.8060005,0.7903101,-0.3432113
2773905,0.8060005,0.7903101,-0.3432113
2773908,0.8035691,0.7878303,-0.3432113
2773910,0.8006416,0.7845948,-0.3432113
2773913,0.8006416,0.7845948,-0.3432113
2773915,0.798929,0.783097,-0.3426407
2773918,0.798929,0.783097,-0.3426407
2773921,0.7972127,0.7810954,-0.3420692
2773923,0.7969672,0.7805943,-0.3426407
2773926,0.7969672,0.7805943,-0.3426407
2773928,0.7972127,0.7803435,-0.3443497
2773932,0.8003972,0.7838463,-0.343781
2773934,0.8003972,0.7838463,-0.343781
2773937,0.8050289,0.7885751,-0.3414966
2773940,0.8072135,0.7910526,-0.3397734
2773942,0.8072135,0.7910526,-0.3397734
2773945,0.8103587,0.7947544,-0.3374619
2773947,0.8079404,0.7927822,-0.3351346
2773950,0.8079404,0.7927822,-0.3351346
2773952,0.806971,0.7922885,-0.3339648
2773955,0.8035691,0.7890712,-0.3345502
2773958,0.8035691,0.7890712,-0.3345502
2773960,0.8025945,0.7878303,-0.3339648
2773963,0.8025945,0.7878303,-0.3339648
2773965,0.7999081,0.7853427,-0.3345502
2773968,0.798929,0.7838463,-0.3345502
2773970,0.798929,0.7838463,-0.3345502
2773974,0.7950006,0.7803435,-0.3345502
2773977,0.7930291,0.7780834,-0.3357179
2773979,0.7930291,0.7780834,-0.3357179
2773982,0.7878303,0.7720242,-0.3363003
2773984,0.7845948,0.7687222,-0.3368816
2773987,0.7845948,0.7687222,-0.3368816
2773989,0.7818466,0.7654059,-0.3386196
2773992,0.7813459,0.7646385,-0.3397734
2773995,0.7813459,0.7646385,-0.3397734
2773997,0.7805943,0.7633579,-0.3414966
2774000,0.7805943,0.7633579,-0.3414966
2774002,0.7803435,0.7628451,-0.3426407
2774005,0.7803435,0.7625886,-0.3426407
2774007,0.7803435,0.7625886,-0.3426407
2774010,0.7775803,0.7595032,-0.3449174
2774013,0.7763211,0.7579558,-0.3460502
2774016,0.7763211,0.7579558,-0.3460502
2774019,0.7763211,0.7574393,-0.3460502
2774021,0.776825,0.7576976,-0.3477423
2774024,0.776825,0.7576976,-0.3477423
2774026,0.7770769,0.7579558,-0.3483046
2774029,0.7773286,0.7576976,-0.3499859
2774032,0.7773286,0.7576976,-0.3499859
2774034,0.7770769,0.7574393,-0.3505445
2774037,0.7770769,0.7574393,-0.3505445
2774039,0.7785863,0.7587299,-0.3505445
2774042,0.7810954,0.7613045,-0.3511023
2774044,0.7810954,0.7613045,-0.3511023
2774047,0.7815963,0.7615615,-0.3511023
2774050,0.7825971,0.7628451,-0.3522151
2774052,0.7825971,0.7628451,-0.3522151
2774055,0.7828471,0.7628451,-0.3522151
2774057,0.7815963,0.7618184,-0.3522151
2774061,0.7815963,0.7618184,-0.3522151
2774063,0.7810954,0.7613045,-0.3522151
2774066,0.7780834,0.7576976,-0.3533245
2774069,0.7780834,0.7576976,-0.3533245
2774071,0.776825,0.7564052,-0.3527702
2774074,0.776825,0.7564052,-0.3527702
2774076,0.7740492,0.7532945,-0.3538778
2774079,0.7727842,0.7522548,-0.3538778
2774082,0.7727842,0.7522548,-0.3538778
2774084,0.7715172,0.7504317,-0.3555328
2774087,0.7702479,0.7486043,-0.3566318
2774089,0.7702479,0.7486043,-0.3566318
2774092,0.7694854,0.7480813,-0.3571801
2774094,0.7682129,0.7457234,-0.3593647
2774097,0.7682129,0.7457234,-0.3593647
2774100,0.7674484,0.7446731,-0.3609945
2774103,0.7677034,0.7436213,-0.3642322
2774106,0.7677034,0.7436213,-0.3642322
2774108,0.7679582,0.7438844,-0.365305
2774111,0.7679582,0.7438844,-0.365305
2774113,0.7687222,0.7438844,-0.3674413
2774116,0.7737964,0.7480813,-0.3700944
2774119,0.7737964,0.7480813,-0.3700944
2774121,0.7808449,0.7545922,-0.3727285
2774124,0.7825971,0.7561465,-0.3748225
2774126,0.7825971,0.7561465,-0.3748225
2774129,0.7850935,0.7574393,-0.3774237
2774131,0.7893192,0.7618184,-0.3784592
2774134,0.7893192,0.7618184,-0.3784592
2774137,0.7954926,0.7682129,-0.3789758
2774139,0.7954926,0.7674484,-0.3820612
2774142,0.7954926,0.7664279,-0.3841043
2774145,0.7952467,0.7656615,-0.3856296
2774148,0.7952467,0.7656615,-0.3856296
2774150,0.7870849,0.7538139,-0.3956476
2774153,0.7848442,0.749649,-0.3995845
2774156,0.7848442,0.749649,-0.3995845
2774158,0.7805943,0.7433581,-0.4054182
2774161,0.7748073,0.7338206,-0.4135417
2774163,0.7748073,0.7338206,-0.4135417
2774166,0.7689767,0.7249676,-0.4210443
2774168,0.760533,0.711069,-0.4320539
2774171,0.760533,0.711069,-0.4320539
2774174,0.7556288,0.7024865,-0.4392403
2774176,0.7486043,0.6898379,-0.450674
2774179,0.7486043,0.6898379,-0.450674
2774181,0.7420408,0.6792617,-0.4579955
2774184,0.7420408,0.6792617,-0.4579955
2774187,0.7364823,0.6705639,-0.4639383
2774190,0.7314168,0.6590852,-0.4756011
2774193,0.7314168,0.6590852,-0.4756011
2774195,0.7306137,0.6555129,-0.4813265
2774198,0.7338206,0.652521,-0.4941643
2774200,0.7338206,0.652521,-0.4941643
2774203,0.7367479,0.652221,-0.501241
2774205,0.747558,0.6570037,-0.5162413
2774208,0.747558,0.6570037,-0.5162413
2774211,0.7545922,0.6608641,-0.5233933
2774213,0.7697397,0.6685182,-0.5403171
2774216,0.7697397,0.6685182,-0.5403171
2774218,0.7778319,0.6723125,-0.5492961
2774221,0.7778319,0.6723125,-0.5492961
2774223,0.7900625,0.6778198,-0.5654452
2774226,0.7952467,0.6792617,-0.5726661
2774230,0.7952467,0.6792617,-0.5726661
2774232,0.8072135,0.6832828,-0.5891711
2774235,0.8137322,0.6849989,-0.5977437
2774237,0.8137322,0.6849989,-0.5977437
2774240,0.8339216,0.694925,-0.6189722
2774242,0.8559229,0.7063754,-0.640108
2774245,0.8559229,0.7063754,-0.640108
2774248,0.8717791,0.7157319,-0.6540186
2774250,0.8961296,0.7295417,-0.675796
2774253,0.8961296,0.7295417,-0.675796
2774255,0.9041728,0.729005,-0.6892704
2774258,0.9041728,0.729005,-0.6892704
2774260,0.9170658,0.7284679,-0.7107937
2774263,0.9240804,0.7265852,-0.7241574
2774266,0.9240804,0.7265852,-0.7241574
2774268,0.9354453,0.7241574,-0.7446731
2774272,0.9400361,0.7236168,-0.7527748
2774274,0.9400361,0.7236168,-0.7527748
2774277,0.9555206,0.7214502,-0.7795909
2774279,0.974179,0.7249676,-0.8038125
2774282,0.974179,0.7249676,-0.8038125
2774285,0.9845687,0.729005,-0.8151737
2774287,1.005999,0.7335538,-0.8425589
2774290,1.005999,0.7335538,-0.8425589
2774292,1.017026,0.7348864,-0.8570652
2774295,1.02641,0.7356848,-0.8697567
2774298,1.02641,0.7356848,-0.8697567
2774300,1.051833,0.7311491,-0.9104272
2774303,1.051833,0.7311491,-0.9104272
2774305,1.062752,0.7303458,-0.9268292
2774308,1.084983,0.7324861,-0.9553158
2774310,1.084983,0.7324861,-0.9553158
2774313,1.131077,0.7370135,-1.013943
2774317,1.154875,0.7388696,-1.043802
2774319,1.154875,0.7388696,-1.043802
2774322,1.208204,0.7530347,-1.103226
2774324,1.236697,0.7633579,-1.13246
2774327,1.236697,0.7633579,-1.13246
2774329,1.262071,0.7722777,-1.158427
2774332,1.297544,0.7835966,-1.194849
2774335,1.297544,0.7835966,-1.194849
2774337,1.37743,0.8163731,-1.270108
2774340,1.37743,0.8163731,-1.270108
2774342,1.419411,0.8360308,-1.307759
2774345,1.456025,0.8529457,-1.340713
2774347,1.456025,0.8529457,-1.340713
2774350,1.550534,0.8976567,-1.424777
2774353,1.589793,0.9155711,-1.460319
2774355,1.589793,0.9155711,-1.460319
2774359,1.639366,0.9346082,-1.507401
2774361,1.721924,0.9655032,-1.585849
2774364,1.721924,0.9655032,-1.585849
2774366,1.767686,0.966516,-1.639724
2774369,1.808943,0.9685385,-1.687252
2774372,1.808943,0.9685385,-1.687252
2774374,1.852452,0.9526493,-1.747869
2774377,1.852452,0.9526493,-1.747869
2774379,1.852452,0.9526493,-1.747869
2774382,1.852452,0.9526493,-1.747869
2774384,1.852452,0.9526493,-1.747869
2774387,1.918059,0.9242921,-1.839411
2774390,2.058805,0.8891146,-2.014797
2774392,2.058805,0.8891146,-2.014797
2774395,2.118956,0.8769265,-2.086566
2774397,2.186507,0.867504,-2.164284
2774401,2.186507,0.867504,-2.164284
2774403,2.300442,0.854092,-2.292772
2774406,2.364054,0.854092,-2.36132
2774409,2.364054,0.854092,-2.36132
2774411,2.475042,0.8550079,-2.479861
2774414,2.475042,0.8550079,-2.479861
2774416,2.536825,0.8575217,-2.54499
2774419,2.593067,0.8600281,-2.604064
2774421,2.593067,0.8600281,-2.604064
2774424,2.706676,0.8618464,-2.724049
2774427,2.763076,0.8620735,-2.783896
2774429,2.763076,0.8620735,-2.783896
2774432,2.881675,0.8616194,-2.908586
2774434,2.942377,0.8613922,-2.972099
2774437,2.942377,0.8613922,-2.972099
2774439,3.012529,0.8627541,-3.044654
2774443,3.076571,0.8643403,-3.110805
2774446,3.076571,0.8643403,-3.110805
2774448,3.203507,0.8672784,-3.241598
2774451,3.203507,0.8672784,-3.241598
2774453,3.263148,0.8686311,-3.302983
2774456,3.384487,0.8932863,-3.421595
2774458,3.384487,0.8932863,-3.421595
2774461,3.447078,0.9127884,-3.480822
2774464,3.578507,0.948326,-3.607172
2774466,3.578507,0.948326,-3.607172
2774469,3.645347,0.9642863,-3.672105
2774471,3.707607,0.9781881,-3.732871
2774474,3.707607,0.9781881,-3.732871
2774476,3.856509,0.9920924,-3.883378
2774479,3.941537,1.000538,-3.968768
2774482,3.941537,1.000538,-3.968768
2774484,4.020195,1.00833,-4.047866
2774488,4.020195,1.00833,-4.047866
2774490,4.184322,1.024884,-4.212497
2774493,4.265399,1.033251,-4.293682
2774496,4.265399,1.033251,-4.293682
2774498,4.341764,1.040987,-4.370226
2774501,4.512538,1.081551,-4.535614
2774503,4.512538,1.081551,-4.535614
2774506,4.607597,1.12187,-4.623469
2774508,4.69586,1.156229,-4.705778
2774511,4.69586,1.156229,-4.705778
2774514,4.860429,1.277482,-4.843834
2774516,4.938085,1.355086,-4.902808
2774519,4.938085,1.355086,-4.902808
2774521,5.012587,1.421202,-4.961042
2774524,5.012587,1.421202,-4.961042
2774526,5.174945,1.603032,-5.07443
2774530,5.273252,1.624376,-5.17112
2774533,5.273252,1.624376,-5.17112
2774535,5.366369,1.645681,-5.262279
2774538,5.455461,1.666831,-5.349143
2774540,5.455461,1.666831,-5.349143
2774543,5.568486,1.668591,-5.467445
2774545,5.794304,1.683072,-5.699801
2774548,5.794304,1.683072,-5.699801
2774551,5.905778,1.694197,-5.81315
2774553,6.013109,1.707315,-5.921457
2774556,6.013109,1.707315,-5.921457
2774558,6.130758,1.710979,-6.042994
2774561,6.130758,1.710979,-6.042994
2774563,6.368983,1.720674,-6.287902
2774566,6.49199,1.727371,-6.41362
2774569,6.49199,1.727371,-6.41362
2774572,6.6072,1.735622,-6.530778
2774575,6.745989,1.751448,-6.670092
2774577,6.745989,1.751448,-6.670092
2774580,7.020739,1.781142,-6.946136
2774582,7.158536,1.795805,-7.084573
2774585,7.158536,1.795805,-7.084573
2774588,7.287069,1.810457,-7.213357
2774590,7.432393,1.817039,-7.361274
2774593,7.432393,1.817039,-7.361274
2774595,7.720115,1.809159,-7.658782
2774598,7.862372,1.798309,-7.807257
2774600,7.862372,1.798309,-7.807257
2774603,7.99527,1.79144,-7.945001
2774606,7.99527,1.79144,-7.945001
2774608,8.146156,1.781581,-8.101618
2774611,8.419886,1.771999,-8.383447
2774614,8.419886,1.771999,-8.383447
2774617,8.576293,1.761142,-8.545321
2774619,8.725373,1.753904,-8.698747
2774622,8.725373,1.753904,-8.698747
2774625,8.895299,1.740351,-8.874403
2774627,9.197059,1.723401,-9.184444
2774630,9.197059,1.723401,-9.184444
2774632,9.359374,1.688412,-9.355908
2774635,9.652924,1.638053,-9.662675
2774637,9.652924,1.638053,-9.662675
2774640,9.956095,1.62112,-9.972476
2774643,9.956095,1.62112,-9.972476
2774645,10.09233,1.615436,-10.11126
2774648,10.40165,1.56723,-10.4313
2774650,10.40165,1.56723,-10.4313
2774653,10.53952,1.549776,-10.5731
2774656,10.83542,1.55859,-10.87006
2774659,10.83542,1.55859,-10.87006
2774662,10.97548,1.562102,-11.01079
2774664,11.27664,1.467538,-11.32743
2774667,11.27664,1.467538,-11.32743
2774669,11.41584,1.432038,-11.47226
2774672,11.7121,1.406252,-11.77343
2774674,11.7121,1.406252,-11.77343
2774677,11.86535,1.409033,-11.92709
2774680,11.86535,1.409033,-11.92709
2774682,12.22226,1.535569,-12.27041
2774685,12.41408,1.637336,-12.45023
2774687,12.59612,1.721242,-12.62217
2774690,12.80828,1.846632,-12.81812
2774692,13.18404,2.037592,-13.16843
2774695,13.18404,2.037592,-13.16843
2774699,13.39405,2.24777,-13.34599
2774701,13.78194,2.577014,-13.68077
2774704,13.78194,2.577014,-13.68077
2774706,13.9725,2.643677,-13.86117
2774709,14.31976,2.751361,-14.19258
2774712,14.31976,2.751361,-14.19258
2774714,14.4185,2.603688,-14.32124
2774717,14.4185,2.603688,-14.32124
2774719,14.6318,2.397106,-14.57448
2774722,14.93499,2.396289,-14.88185
2774724,14.93499,2.396289,-14.88185
2774727,15.11875,2.457104,-15.05785
2774730,15.51506,2.730437,-15.41179
2774732,15.51506,2.730437,-15.41179
2774735,15.72042,2.91336,-15.58606
2774737,16.1289,3.136501,-15.95767
2774740,16.1289,3.136501,-15.95767
2774743,16.33036,3.197819,-16.15048
2774746,16.72256,3.364529,-16.51556
2774749,16.72256,3.364529,-16.51556
2774751,17.10158,3.547292,-16.86302
2774754,17.10158,3.547292,-16.86302
2774756,17.31186,3.586104,-17.06694
2774759,17.51843,3.627362,-17.26746
2774761,17.51843,3.627362,-17.26746
2774764,17.71882,3.669171,-17.46211
2774767,17.87429,3.577522,-17.64131
2774769,17.87429,3.577522,-17.64131
2774772,18.23451,3.454284,-18.03395
2774774,18.41848,3.413632,-18.22889
2774777,18.41848,3.413632,-18.22889
2774779,18.74771,3.285868,-18.5885
2774782,18.89771,3.208759,-18.75561
2774786,18.89771,3.208759,-18.75561
2774788,19.20932,3.201368,-19.0733
2774791,19.20932,3.201368,-19.0733
2774793,19.37068,3.247331,-19.22843
2774796,19.69014,3.326431,-19.53775
2774798,19.69014,3.326431,-19.53775
2774801,20.00542,3.279904,-19.86552
2774804,20.16265,3.267465,-20.02692
2774806,20.16265,3.267465,-20.02692
2774809,20.39696,3.097372,-20.29294
2774811,20.51921,3.037316,-20.42629
2774814,20.51921,3.037316,-20.42629
2774816,20.62483,2.724552,-20.58231
2774819,20.70623,2.612469,-20.68095
2774822,20.70623,2.612469,-20.68095
2774824,20.95881,2.724911,-20.92064
2774828,20.95881,2.724911,-20.92064
2774830,21.22914,2.855676,-21.17456
2774833,21.37344,2.930177,-21.30899
2774835,21.37344,2.930177,-21.30899
2774838,21.65944,3.044204,-21.58021
2774841,21.91112,3.033381,-21.83718
2774843,21.91112,3.033381,-21.83718
2774846,22.0414,3.031186,-21.96949
2774848,22.26826,3.143671,-22.18312
2774851,22.26826,3.143671,-22.18312
2774853,22.38758,3.18764,-22.29754
2774856,22.40753,2.883576,-22.36931
2774859,22.40753,2.883576,-22.36931
2774861,22.45901,2.782067,-22.43812
2774864,22.45901,2.782067,-22.43812
2774866,22.2928,2.380473,-22.33367
2774870,22.27081,2.256287,-22.33109
2774872,22.27081,2.256287,-22.33109
2774875,22.55077,2.088348,-22.62281
2774878,22.68752,2.028254,-22.76377
2774880,22.68752,2.028254,-22.76377
2774883,23.01855,2.170695,-23.07623
2774885,23.3241,2.277526,-23.36885
2774888,23.3241,2.277526,-23.36885
2774890,23.48556,2.365792,-23.52047
2774893,23.79357,2.504287,-23.81311
2774896,23.79357,2.504287,-23.81311
2774898,23.95047,2.645009,-23.9531
2774901,23.95047,2.645009,-23.9531
2774903,24.25963,2.867988,-24.23464
2774906,24.38788,2.834554,-24.36807
2774909,24.38788,2.834554,-24.36807
2774912,24.64761,2.794633,-24.63452
2774915,24.76672,2.754135,-24.75945
2774917,24.76672,2.754135,-24.75945
2774920,25.00858,2.701681,-25.0092
2774922,25.1772,2.81014,-25.16745
2774925,25.1772,2.81014,-25.16745
2774928,25.27572,2.855059,-25.26173
2774930,25.39398,2.664401,-25.40417
2774933,25.39398,2.664401,-25.40417
2774935,25.48375,2.339921,-25.52952
2774938,25.41637,2.190352,-25.47851
2774940,25.41637,2.190352,-25.47851
2774943,25.38152,1.988397,-25.46508
2774946,25.38152,1.988397,-25.46508
2774948,25.40621,1.963637,-25.49232
2774951,25.50361,1.934113,-25.5931
2774953,25.50361,1.934113,-25.5931
2774957,25.41029,1.833444,-25.51172
2774959,25.32927,1.717372,-25.44609
2774962,25.32927,1.717372,-25.44609
2774965,25.42715,1.681327,-25.54603
2774967,25.63651,1.632908,-25.75816
2774970,25.63651,1.632908,-25.75816
2774972,25.61142,1.56373,-25.74026
2774975,25.63015,1.487406,-25.76791
2774977,25.63015,1.487406,-25.76791
2774980,25.65399,1.455353,-25.79735
2774983,25.65399,1.455353,-25.79735
2774985,25.66165,1.450099,-25.80709
2774988,25.71312,1.435859,-25.85932
2774990,25.71312,1.435859,-25.85932
2774993,25.75312,1.425876,-25.89865
2774995,25.85317,1.410837,-25.99636
2774999,25.85317,1.410837,-25.99636
2775002,25.91002,1.407226,-26.05165
2775004,26.06828,1.493838,-26.20197
2775007,26.06828,1.493838,-26.20197
2775009,26.16554,1.579667,-26.29271
2775012,26.23648,1.636618,-26.36304
2775014,26.23648,1.636618,-26.36304
2775017,26.23473,1.627265,-26.36532
2775020,26.23473,1.627265,-26.36532
2775022,26.33332,1.710063,-26.46469
2775025,26.41405,1.780922,-26.54337
2775027,26.41405,1.780922,-26.54337
2775030,26.60306,1.951339,-26.72179
2775032,26.71108,2.052236,-26.82152
2775035,26.71108,2.052236,-26.82152
2775038,26.88297,2.234233,-26.97737
2775041,26.9572,2.317142,-27.04382
2775044,26.9572,2.317142,-27.04382
2775046,27.07198,2.458299,-27.14533
2775049,27.11813,2.51855,-27.18579
2775051,27.11813,2.51855,-27.18579
2775054,27.16973,2.599776,-27.23049
2775057,27.16973,2.599776,-27.23049
2775059,27.18377,2.62689,-27.24266
2775062,27.21275,2.666971,-27.26867
2775064,27.21275,2.666971,-27.26867
2775067,27.24896,2.697621,-27.30235
2775069,27.27941,2.715556,-27.33125
2775072,27.27941,2.715556,-27.33125
2775075,27.32562,2.413949,-27.40374
2775077,27.36289,2.312153,-27.44902
2775080,27.36289,2.312153,-27.44902
2775083,27.39914,2.001152,-27.50721
2775086,27.43327,1.893309,-27.54799
2775088,27.43327,1.893309,-27.54799
2775091,27.45016,1.985541,-27.55784
2775094,27.45016,1.985541,-27.55784
2775096,27.47263,2.022359,-27.57739
2775099,27.46338,2.201582,-27.5546
2775101,27.46338,2.201582,-27.5546
2775104,27.46989,2.363557,-27.54722
2775106,27.47439,2.442002,-27.54442
2775109,27.47439,2.442002,-27.54442
2775112,27.51035,2.571996,-27.56779
2775114,27.50259,2.624803,-27.55486
2775117,27.50259,2.624803,-27.55486
2775119,27.51458,2.714835,-27.55777
2775122,27.44376,2.750863,-27.48541
2775126,27.44376,2.750863,-27.48541
2775128,27.43045,2.77121,-27.47084
2775131,27.43045,2.77121,-27.47084
2775133,27.37836,2.791129,-27.41743
2775136,27.37043,2.804981,-27.40837
2775138,27.37043,2.804981,-27.40837
2775141,27.33113,2.814803,-27.36775
2775144,27.32611,2.824038,-27.36171
2775146,27.32611,2.834899,-27.36208
2775149,27.35128,2.793232,-27.38323
2775151,27.37718,2.765342,-27.40674
2775154,27.40529,2.748372,-27.4325
2775156,27.39656,2.672103,-27.43013
2775159,27.39887,2.565138,-27.44081
2775162,27.39887,2.565138,-27.44081
2775164,27.36091,2.50155,-27.4102
2775168,27.36091,2.50155,-27.4102
2775170,27.31989,2.412813,-27.37917
2775173,27.2747,2.371329,-27.33942
2775175,27.2747,2.371329,-27.33942
2775178,27.21837,2.314015,-27.29067
2775181,27.16376,2.282334,-27.24081
2775183,27.16376,2.282334,-27.24081
2775186,27.09122,2.238521,-27.17508
2775188,26.76976,1.958447,-26.88013
2775191,26.76976,1.958447,-26.88013
2775193,26.65721,1.867184,-26.7758
2775196,26.4089,1.666361,-26.54294
2775199,26.4089,1.666361,-26.54294
2775201,26.28141,1.572217,-26.42174
2775204,26.28141,1.572217,-26.42174
2775206,26.23447,1.482397,-26.37867
2775209,26.27982,1.46273,-26.42378
2775212,26.27982,1.46273,-26.42378
2775215,26.467,1.188444,-26.61099
2775218,26.68938,0.8089085,-26.83384
2775220,26.68938,0.8089085,-26.83384
2775223,26.84593,0.5410409,-26.99063
2775225,27.08123,0.166689,-27.2265
2775228,27.08123,0.166689,-27.2265
2775230,27.1701,0.1153499,-27.31561
2775233,27.36829,-0.4159008,-27.5144
2775236,27.36829,-0.4159008,-27.5144
2775238,27.37879,-0.4261257,-27.52445
2775241,27.37879,-0.4261257,-27.52445
2775243,27.33066,0.4639383,-27.47394
2775246,27.21403,0.842791,-27.34557
2775248,27.21403,0.842791,-27.34557
2775251,27.15267,1.101806,-27.27466
2775255,27.22741,2.180501,-27.28098
2775257,27.22741,2.180501,-27.28098
2775260,27.45059,3.428112,-27.36676
2775262,27.28838,3.368193,-27.21619
2775265,27.28838,3.368193,-27.21619
2775267,27.06112,3.290095,-27.00597
2775270,26.98336,3.263568,-26.93438
2775273,26.98336,3.263568,-26.93438
2775275,26.86739,3.249259,-26.82584
2775278,26.82902,3.24341,-26.79025
2775280,26.82902,3.24341,-26.79025
2775283,26.74733,3.209491,-26.71689
2775285,26.74733,3.209491,-26.71689
2775288,26.72066,3.195308,-26.69339
2775291,26.68121,3.174223,-26.6587
2775293,26.68121,3.174223,-26.6587
2775297,26.56285,2.953003,-26.57076
2775299,26.47964,2.784318,-26.50905
2775302,26.47964,2.784318,-26.50905
2775304,26.41526,2.664327,-26.45962
2775307,26.41993,2.681537,-26.46247
2775310,26.41993,2.681537,-26.46247
2775312,26.42363,2.684965,-26.46569
2775315,26.46032,2.773823,-26.49154
2775317,26.46032,2.773823,-26.49154
2775320,26.47576,2.80533,-26.50293
2775323,26.47576,2.80533,-26.50293
2775325,26.4847,2.848126,-26.50662
2775328,26.50247,2.910738,-26.5163
2775330,26.50247,2.910738,-26.5163
2775333,26.48339,2.923756,-26.49565
2775335,26.47802,2.928038,-26.48965
2775339,26.47802,2.928038,-26.48965
2775342,26.49842,2.994083,-26.50146
2775344,26.5078,3.018826,-26.50746
2775347,26.5078,3.018826,-26.50746
2775349,26.54474,3.109672,-26.53238
2775352,26.55292,3.144916,-26.53584
2775354,26.55292,3.144916,-26.53584
2775357,26.55292,3.144916,-26.53584
2775360,26.55292,3.144916,-26.53584
2775362,26.55292,3.144916,-26.53584
2775365,26.5612,3.165144,-26.54132
2775367,26.5612,3.165144,-26.54132
2775370,26.56945,3.182785,-26.54705
2775372,26.57168,3.18635,-26.54874
2775375,26.57168,3.18635,-26.54874
2775378,26.57886,3.19445,-26.55456
2775380,26.68711,3.410591,-26.63255
2775384,26.68711,3.410591,-26.63255
2775386,26.85281,3.737064,-26.74911
2775389,26.97073,3.965312,-26.83025
2775391,26.97073,3.965312,-26.83025
2775394,27.15472,4.315521,-26.95399
2775397,27.15472,4.315521,-26.95399
2775399,27.31256,4.616686,-27.05668
2775402,27.37553,4.734414,-27.09715
2775404,27.37553,4.734414,-27.09715
2775407,27.49009,4.959107,-27.16756
2775409,27.53747,5.049815,-27.19656
2775412,27.53747,5.049815,-27.19656
2775415,27.60925,5.190332,-27.2394
2775417,27.63722,5.246317,-27.25568
2775420,27.63722,5.246317,-27.25568
2775422,27.66861,5.314633,-27.27286
2775426,27.68447,5.353683,-27.28066
2775428,27.68447,5.353683,-27.28066
2775431,27.68581,5.366333,-27.27952
2775434,27.68581,5.366333,-27.27952
2775436,27.69791,5.402363,-27.28412
2775439,27.63861,5.263284,-27.25565
2775441,27.63861,5.263284,-27.25565
2775444,27.56067,5.073581,-27.21877
2775446,27.56011,5.08099,-27.21662
2775449,27.56011,5.08099,-27.21662
2775452,27.56783,5.107183,-27.21883
2775454,27.5293,5.023519,-27.19811
2775457,27.5293,5.023519,-27.19811
2775459,27.49541,4.946963,-27.18031
2775462,27.42419,4.782949,-27.14277
2775464,27.42419,4.782949,-27.14277
2775468,27.36129,4.634472,-27.10952
2775471,27.36129,4.634472,-27.10952
2775473,27.32179,4.552641,-27.08599
2775476,27.26674,4.436193,-27.05332
2775478,27.26674,4.436193,-27.05332
2775481,27.23676,4.37748,-27.03434
2775483,27.19441,4.292678,-27.00772
2775486,27.19441,4.292678,-27.00772
2775489,27.17379,4.259011,-26.99331
2775491,27.15755,4.231886,-26.98206
2775494,27.15755,4.231886,-26.98206
2775496,27.13652,4.200439,-26.96669
2775499,27.13014,4.192552,-26.96165
2775501,27.13014,4.192552,-26.96165
2775504,27.11637,4.179171,-26.95025
2775507,27.11637,4.179171,-26.95025
2775510,27.10945,4.173496,-26.94437
2775513,27.09305,4.162454,-26.93009
2775515,27.09305,4.162454,-26.93009
2775518,27.08416,4.157228,-26.92227
2775520,27.06968,4.148221,-26.90933
2775523,27.06968,4.148221,-26.90933
2775526,27.06376,4.1443,-26.90398
2775528,27.05774,4.146096,-26.8975
2775531,27.05774,4.146096,-26.8975
2775533,27.05669,4.150109,-26.89573
2775536,27.05509,4.155344,-26.89318
2775539,27.05509,4.155344,-26.89318
2775541,27.05543,4.165182,-26.89175
2775544,27.05543,4.165182,-26.89175
2775546,27.06018,4.189187,-26.89198
2775549,27.06387,4.20235,-26.89314
2775552,27.06387,4.20235,-26.89314
2775555,27.05966,4.21059,-26.88717
2775558,27.05369,4.208451,-26.88148
2775560,27.05369,4.208451,-26.88148
2775563,27.04478,4.205471,-26.87296
2775565,27.03557,4.1982,-26.86494
2775568,27.03557,4.1982,-26.86494
2775570,27.02148,4.187316,-26.85263
2775573,27.00499,4.163677,-26.8388
2775576,27.00499,4.163677,-26.8388
2775578,26.99862,4.154872,-26.83344
2775581,26.7799,3.751863,-26.67918
2775583,26.7799,3.751863,-26.67918
2775586,26.70104,3.606086,-26.62215
2775588,26.70104,3.606086,-26.62215
2775591,26.66661,3.587414,-26.58929
2775595,26.61423,3.559745,-26.53916
2775597,26.61423,3.559745,-26.53916
2775600,26.60922,3.638196,-26.52008
2775602,26.60692,3.667997,-26.51237
2775605,26.60692,3.667997,-26.51237
2775607,26.62247,3.770813,-26.51025
2775610,26.62796,3.810382,-26.5088
2775613,26.62796,3.810382,-26.5088
2775615,26.63768,3.890582,-26.50458
2775618,26.64108,3.923061,-26.50223
2775620,26.64108,3.923061,-26.50223
2775623,26.79489,4.30152,-26.59018
2775625,26.79489,4.30152,-26.59018
2775628,26.85238,4.443869,-26.62146
2775631,26.98544,4.761521,-26.69345
2775633,26.98544,4.761521,-26.69345
2775636,27.11785,5.070645,-26.76289
2775639,27.18557,5.230495,-26.79668
2775642,27.18557,5.230495,-26.79668
2775644,27.29282,5.48498,-26.84789
2775647,27.34032,5.598637,-26.86946
2775650,27.34032,5.598637,-26.86946
2775652,27.4185,5.787738,-26.90343
2775655,27.44575,5.858392,-26.91385
2775657,27.44575,5.858392,-26.91385
2775660,27.49443,5.985596,-26.93168
2775662,27.49443,5.985596,-26.93168
2775665,27.5206,6.072637,-26.9364
2775668,27.53437,6.116031,-26.93934
2775670,27.53437,6.116031,-26.93934
2775673,27.54847,6.159375,-26.94255
2775675,27.54649,6.188019,-26.9332
2775678,27.54649,6.188019,-26.9332
2775681,27.32048,5.786112,-26.80436
2775684,27.24306,5.650902,-26.75835
2775687,27.24306,5.650902,-26.75835
2775689,27.0192,5.247251,-26.62445
2775692,26.94057,5.107605,-26.5756
2775694,26.94057,5.107605,-26.5756
2775697,26.7864,4.837399,-26.47714
2775699,26.7864,4.837399,-26.47714
2775702,26.71244,4.709315,-26.42872
2775705,26.59728,4.517657,-26.35071
2775707,26.59728,4.517657,-26.35071
2775710,26.51446,4.388875,-26.29212
2775712,26.4738,4.337928,-26.26114
2775715,26.4738,4.337928,-26.26114
2775717,26.41099,4.26448,-26.2121
2775720,26.38641,4.238268,-26.19238
2775724,26.38641,4.238268,-26.19238
2775726,26.32657,4.180108,-26.14315
2775729,26.30129,4.167251,-26.12045
2775731,26.30129,4.167251,-26.12045
2775734,26.25915,4.148174,-26.0821
2775736,26.25915,4.148174,-26.0821
2775739,26.24116,4.141133,-26.06549
2775742,26.09857,3.854071,-25.97157
2775744,26.09857,3.854071,-25.97157
2775747,26.12883,3.938356,-25.98728
2775749,26.16735,4.05975,-26.00435
2775752,26.16735,4.05975,-26.00435
2775755,26.06172,3.864371,-25.9316
2775757,25.90357,3.578835,-25.81892
2775760,25.90357,3.578835,-25.81892
2775762,25.84403,3.474967,-25.77516
2775766,25.49784,3.013958,-25.49458
2775768,25.49784,3.013958,-25.49458
2775771,25.24028,2.64878,-25.28364
2775774,25.24028,2.64878,-25.28364
2775776,25.13179,2.487348,-25.1942
2775779,25.04015,2.356923,-25.11728
2775781,25.04015,2.356923,-25.11728
2775784,24.87317,2.094524,-24.97954
2775786,24.80749,1.93967,-24.84248
2775789,24.71932,1.93967,-24.84248
2775792,24.64251,1.888133,-24.77143
2775794,24.76781,2.049182,-24.8793
2775797,24.76781,2.049182,-24.8793
2775799,24.92161,2.250468,-25.01069
2775802,25.13641,2.57329,-25.18717
2775804,25.13641,2.57329,-25.18717
2775808,25.3571,2.976311,-25.35634
2775811,25.3571,2.976311,-25.35634
2775813,25.67859,3.588996,-25.58791
2775816,26.03554,4.28025,-25.82653
2775818,26.03554,4.28025,-25.82653
2775821,26.16184,4.528872,-25.90597
2775823,26.42892,5.043953,-26.06889
2775826,26.42892,5.043953,-26.06889
2775829,26.52396,5.229821,-26.124
2775831,26.70105,5.569578,-26.22482
2775834,26.70105,5.569578,-26.22482
2775836,26.76354,5.693747,-26.25837
2775839,26.86104,5.873696,-26.31298
2775841,26.86104,5.873696,-26.31298
2775844,26.89483,5.940296,-26.33057
2775847,26.89483,5.940296,-26.33057
2775849,26.94659,6.034197,-26.35914
2775853,26.97714,6.094678,-26.37452
2775855,26.97714,6.094678,-26.37452
2775858,26.98702,6.115839,-26.37903
2775860,26.99928,6.150839,-26.38234
2775863,26.99928,6.150839,-26.38234
2775866,26.99898,6.152305,-26.38163
2775868,26.99653,6.157433,-26.37778
2775871,26.99653,6.157433,-26.37778
2775873,26.99299,6.151476,-26.3757
2775876,26.98615,6.14545,-26.37027
2775878,26.98615,6.14545,-26.37027
2775881,26.59066,5.321376,-26.1714
2775884,26.59066,5.321376,-26.1714
2775886,26.28556,4.668247,-26.00484
2775889,25.88254,3.644971,-25.78461
2775891,25.88254,3.644971,-25.78461
2775895,25.36676,2.29243,-25.44762
2775897,25.14175,1.431902,-25.28993
2775900,25.14175,1.431902,-25.28993
2775903,24.93371,-2.040568,-25.03105
2775905,24.92681,-2.93485,-24.91994
2775908,24.92681,-2.93485,-24.91994
2775910,24.99456,-4.418541,-24.73747
2775913,25.07528,-5.144185,-24.65965
2775915,25.07528,-5.144185,-24.65965
2775918,25.23113,-6.240893,-24.53281
2775921,25.3208,-6.722925,-24.48172
2775923,25.3208,-6.722925,-24.48172
2775926,25.47118,-7.462797,-24.39714
2775928,25.47118,-7.462797,-24.39714
2775931,25.59092,-7.997382,-24.33282
2775933,25.64152,-8.211165,-24.30649
2775937,25.64152,-8.211165,-24.30649
2775940,25.47328,-7.052881,-24.52954
2775942,25.35196,-5.991357,-24.71608
2775945,25.35196,-5.991357,-24.71608
2775947,25.27212,-4.020049,-25.07408
2775950,25.29685,-3.126687,-25.23944
2775953,25.29685,-3.126687,-25.23944
2775955,25.43699,-1.664481,-25.53185
2775958,25.61902,-0.694925,-25.76186
2775960,25.61902,-0.694925,-25.76186
2775963,25.72058,0.5226451,-25.86706
2775965,25.72058,0.5226451,-25.86706
2775968,25.88457,0.9608305,-26.0159
2775971,25.96446,1.243797,-26.08196
2775973,25.96446,1.243797,-26.08196
2775976,26.08714,1.669412,-26.17755
2775979,26.13321,1.820267,-26.21218
2775982,26.13321,1.820267,-26.21218
2775984,26.21641,2.097512,-26.27202
2775987,26.27446,2.297206,-26.31133
2775990,26.27446,2.297206,-26.31133
2775992,26.29712,2.378334,-26.32593
2775995,26.33356,2.42487,-26.35756
2775997,26.33356,2.42487,-26.35756
2776000,26.38957,2.487977,-26.4069
2776002,26.38957,2.487977,-26.4069
2776005,26.41117,2.508426,-26.42629
2776008,26.42803,2.567883,-26.4368
2776010,26.42803,2.567883,-26.4368
2776013,26.43518,2.587853,-26.44177
2776015,26.46159,2.559561,-26.47121
2776018,26.46159,2.559561,-26.47121
2776020,26.4726,2.546836,-26.48356
2776024,26.46793,2.532269,-26.48042
2776027,26.46793,2.532269,-26.48042
2776029,26.45017,2.529949,-26.46287
2776032,26.43684,2.532655,-26.44922
2776034,26.43684,2.532655,-26.44922
2776037,26.40265,2.543144,-26.41386
2776039,26.40265,2.543144,-26.41386
2776042,26.38353,2.549754,-26.39402
2776045,26.34641,2.570855,-26.35456
2776047,26.34641,2.570855,-26.35456
2776050,26.32874,2.583614,-26.33547
2776052,26.27817,2.62152,-26.2807
2776055,26.27817,2.62152,-26.2807
2776057,26.24832,2.644047,-26.24835
2776060,26.2028,2.676422,-26.19919
2776064,26.2028,2.676422,-26.19919
2776066,26.13236,2.775093,-26.11763
2776069,26.10544,2.811811,-26.08646
2776071,26.10544,2.811811,-26.08646
2776074,26.01344,2.93178,-25.98089
2776076,26.01344,2.93178,-25.98089
2776079,25.93987,3.029119,-25.89608
2776082,25.90725,3.072687,-25.85837
2776084,25.90725,3.072687,-25.85837
2776087,25.87828,3.110679,-25.82491
2776089,25.75893,3.145352,-25.7025
2776092,25.75893,3.145352,-25.7025
2776094,25.67099,3.17558,-25.6118
2776097,25.61072,3.170274,-25.55301
2776100,25.61072,3.170274,-25.55301
2776102,25.51229,3.167803,-25.45627
2776105,25.45623,3.230285,-25.39428
2776108,25.45623,3.230285,-25.39428
2776111,25.36327,3.331783,-25.2917
2776113,25.36327,3.331783,-25.2917
2776116,25.27278,3.434104,-25.19202
2776119,25.23392,3.476713,-25.14932
2776121,25.23392,3.476713,-25.14932
2776124,25.26131,3.452073,-25.17804
2776126,25.26613,3.447021,-25.18294
2776129,25.26613,3.447021,-25.18294
2776131,25.28515,3.420851,-25.20373
2776134,25.29731,3.390382,-25.22537
2776137,25.30449,3.390382,-25.22537
2776139,25.32179,3.373188,-25.24388
2776142,25.34092,3.352286,-25.26428
2776144,25.34092,3.352286,-25.26428
2776147,25.35246,3.356605,-25.27448
2776150,25.35246,3.356605,-25.27448
2776153,25.36343,3.367495,-25.2829
2776156,25.37455,3.375915,-25.29191
2776158,25.37455,3.375915,-25.29191
2776161,25.37602,3.380956,-25.29235
2776163,25.37294,3.406743,-25.28518
2776166,25.37294,3.406743,-25.28518
2776169,25.36904,3.42497,-25.27856
2776171,25.32214,3.443271,-25.22982
2776174,25.32214,3.443271,-25.22982
2776176,25.28592,3.446454,-25.19393
2776179,25.23575,3.472882,-25.14086
2776181,25.23575,3.472882,-25.14086
2776184,25.21928,3.492222,-25.12183
2776187,25.21928,3.492222,-25.12183
2776189,25.27036,3.749827,-25.13234
2776193,25.36548,4.112184,-25.16535
2776195,25.36548,4.112184,-25.16535
2776198,25.40574,4.257862,-25.17923
2776200,25.46197,4.48052,-25.19353
2776203,25.46197,4.48052,-25.19353
2776206,25.4806,4.567118,-25.19532
2776208,25.48046,4.74516,-25.15694
2776211,25.48046,4.74516,-25.15694
2776213,25.46053,4.738509,-25.136
2776216,25.44439,4.678726,-25.13084
2776218,25.44439,4.678726,-25.13084
2776221,25.40466,4.56347,-25.11163
2776224,25.40466,4.56347,-25.11163
2776226,25.38234,4.509324,-25.0987
2776229,25.33931,4.433057,-25.06827
2776231,25.33931,4.433057,-25.06827
2776235,25.31864,4.406956,-25.05166
2776237,25.25332,4.341493,-24.99742
2776240,25.25332,4.341493,-24.99742
2776243,25.21273,4.30548,-24.96314
2776245,25.07726,4.061631,-24.87094
2776248,25.07726,4.061631,-24.87094
2776250,24.92547,3.745909,-24.77201
2776253,24.86661,3.630761,-24.73138
2776255,24.86661,3.630761,-24.73138
2776258,24.74572,3.684561,-24.60174
2776261,24.69661,3.704701,-24.54927
2776263,24.69661,3.704701,-24.54927
2776266,24.43289,3.575824,-24.30594
2776268,24.43289,3.575824,-24.30594
2776271,24.32991,3.528698,-24.21034
2776273,24.06366,3.500678,-23.95474
2776276,24.06366,3.500678,-23.95474
2776280,23.84641,3.679722,-23.7165
2776282,23.7499,3.831956,-23.5988
2776285,23.7499,3.831956,-23.5988
2776287,23.56291,4.122363,-23.35483
2776290,23.47587,4.261448,-23.23425
2776292,23.47587,4.261448,-23.23425
2776295,23.33256,4.474702,-23.03824
2776298,23.10476,5.418336,-22.58215
2776300,23.10476,5.418336,-22.58215
2776303,22.82975,6.802965,-21.88336
2776305,22.82975,6.802965,-21.88336
2776308,22.73179,7.30275,-21.59794
2776310,22.68851,7.486398,-21.48187
2776313,22.68851,7.486398,-21.48187
2776316,22.68851,7.486398,-21.48187
2776318,22.56926,7.363006,-21.39871
2776322,22.56926,7.363006,-21.39871
2776324,22.56926,7.363006,-21.39871
2776327,22.3716,7.15308,-21.26472
2776329,22.3716,7.15308,-21.26472
2776332,21.97686,6.737379,-20.99305
2776335,21.82219,6.584248,-20.88217
2776337,21.82219,6.584248,-20.88217
2776340,21.46226,6.293263,-20.60179
2776342,21.46226,6.293263,-20.60179
2776345,21.31693,6.18282,-20.48571
2776347,21.04496,6.14028,-20.21572
2776350,21.04496,6.14028,-20.21572
2776353,20.91451,6.177681,-20.06752
2776355,20.65855,6.302354,-19.75845
2776358,20.65855,6.302354,-19.75845
2776360,20.42442,6.441686,-19.46498
2776364,20.25489,6.393656,-19.30449
2776367,20.25489,6.393656,-19.30449
2776369,19.96396,6.316276,-19.02729
2776372,19.73436,6.121574,-18.8586
2776374,19.73436,6.121574,-18.8586
2776377,19.35933,5.836805,-18.57183
2776379,19.35933,5.836805,-18.57183
2776382,19.04045,5.550297,-18.34109
2776385,18.53445,5.136104,-17.96063
2776387,18.53445,5.136104,-17.96063
2776390,17.99791,4.80632,-17.52083
2776392,17.7767,4.684793,-17.33537
2776395,17.7767,4.684793,-17.33537
2776397,17.52113,4.770523,-17.05421
2776400,17.45801,4.916216,-16.94572
2776403,17.45801,4.916216,-16.94572
2776406,17.36009,5.219583,-16.74806
2776409,17.32231,5.371187,-16.65785
2776411,17.32231,5.371187,-16.65785
2776414,17.18484,5.593839,-16.43629
2776416,17.18484,5.593839,-16.43629
2776419,17.09241,5.674472,-16.31023
2776422,16.8161,5.822583,-15.96283
2776424,16.8161,5.822583,-15.96283
2776427,16.49653,5.943166,-15.57597
2776429,16.16669,5.860901,-15.25437
2776432,16.16669,5.860901,-15.25437
2776434,15.61999,5.734256,-14.71839
2776437,15.30431,5.664758,-14.40732
2776440,15.30431,5.664758,-14.40732
2776442,14.77814,5.555767,-13.88663
2776445,14.54908,5.511853,-13.65884
2776448,14.54908,5.511853,-13.65884
2776451,14.06306,5.22791,-13.24162
2776453,14.06306,5.22791,-13.24162
2776456,13.61101,4.965818,-12.85854
2776459,13.38312,4.834524,-12.66687
2776461,13.38312,4.834524,-12.66687
2776464,12.96033,4.637809,-12.29373
2776466,12.5826,4.499366,-11.94684
2776469,12.5826,4.499366,-11.94684
2776471,12.40658,4.440208,-11.78323
2776474,11.93515,4.23059,-11.36593
2776477,11.93515,4.23059,-11.36593
2776479,11.4878,4.078567,-10.95087
2776482,11.26629,4.017418,-10.73955
2776484,11.26629,4.017418,-10.73955
2776487,10.81183,3.936764,-10.28757
2776489,10.81183,3.936764,-10.28757
2776493,10.58338,3.910713,-10.0541
2776496,10.13421,3.843641,-9.598926
2776498,10.13421,3.843641,-9.598926
2776501,9.909469,3.804005,-9.372847
2776503,9.468738,3.745438,-8.920089
2776506,9.468738,3.745438,-8.920089
2776508,9.253531,3.722996,-8.695561
2776511,8.833822,3.710563,-8.240834
2776514,8.833822,3.710563,-8.240834
2776516,8.630694,3.714834,-8.014227
2776519,8.246551,3.704701,-7.592332
2776521,8.246551,3.704701,-7.592332
2776524,8.038808,3.70396,-7.359008
2776526,7.835915,3.697241,-7.133334
2776529,7.641672,3.686421,-6.91869
2776532,7.268063,3.727726,-6.463414
2776535,7.268063,3.727726,-6.463414
2776538,7.08377,3.73502,-6.2435
2776540,6.691755,3.768475,-5.752615
2776543,6.691755,3.768475,-5.752615
2776545,6.511082,3.774809,-5.527936
2776548,6.124807,3.770657,-5.049117
2776551,6.124807,3.770657,-5.049117
2776553,5.940165,3.762547,-4.819751
2776556,5.578262,3.778801,-4.325494
2776558,5.578262,3.778801,-4.325494
2776561,5.254528,3.776832,-3.876514
2776563,5.254528,3.776832,-3.876514
2776566,5.08785,3.77652,-3.633403
2776569,4.776719,3.765616,-3.166134
2776571,4.776719,3.765616,-3.166134
2776574,4.620672,3.75984,-2.916114
2776577,4.344199,3.741986,-2.445126
2776580,4.344199,3.741986,-2.445126
2776583,4.22846,3.750036,-2.197043
2776585,4.030266,3.753481,-1.727144
2776588,4.030266,3.753481,-1.727144
2776590,3.918317,3.732188,-1.466604
2776593,3.746118,3.69157,-0.9717657
2776595,3.746118,3.69157,-0.9717657
2776598,3.698723,3.71552,-0.4635163
2776601,3.693691,3.720576,-0.2220564
2776603,3.693691,3.720576,-0.2220564
2776606,3.681744,3.676475,0.3006659
2776608,3.681744,3.676475,0.3006659
2776611,3.702269,3.656341,0.5475121
2776613,3.847307,3.669171,1.056659
2776616,3.847307,3.669171,1.056659
2776620,3.963584,3.692683,1.324856
2776622,4.228923,3.737693,1.846844
2776625,4.228923,3.737693,1.846844
2776627,4.515532,3.774809,2.33875
2776630,4.61295,3.718944,2.587399
2776632,4.61295,3.718944,2.587399
2776635,4.849857,3.629952,3.071923
2776638,4.98582,3.590142,3.314639
2776640,5.129195,3.555177,3.55154
2776643,5.280975,3.523979,3.787238
2776645,5.280975,3.523979,3.787238
2776648,5.640244,3.480541,4.291902
2776650,5.822381,3.460853,4.535787
2776653,5.822381,3.460853,4.535787
2776656,6.200204,3.430738,5.018017
2776658,6.400675,3.418447,5.264847
2776662,6.400675,3.418447,5.264847
2776664,6.766686,3.348371,5.73429
2776667,7.107022,3.255881,6.172538
2776669,7.107022,3.255881,6.172538
2776672,7.287608,3.206073,6.400246
2776675,7.668642,3.121862,6.861185
2776677,7.668642,3.121862,6.861185
2776680,7.88461,3.097562,7.106773
2776682,7.88461,3.097562,7.106773
2776685,8.317486,3.05127,7.593082
2776687,8.536216,3.028796,7.836215
2776690,8.536216,3.028796,7.836215
2776693,8.914602,2.922283,8.277801
2776695,9.109857,2.877528,8.728097
2776698,9.314075,2.836832,8.728097
2776700,9.518968,2.799532,8.95504
2776704,9.916274,2.73101,9.391031
2776706,9.916274,2.73101,9.391031
2776709,10.11093,2.699144,9.602897
2776712,10.50435,2.632473,10.0286
2776714,10.50435,2.632473,10.0286
2776717,10.89638,2.567045,10.44932
2776719,10.89638,2.567045,10.44932
2776722,11.09436,2.537056,10.66016
2776724,11.51038,2.480098,11.10073
2776727,11.51038,2.480098,11.10073
2776730,11.72118,2.452719,11.32276
2776732,12.10981,2.371246,11.73784
2776735,12.10981,2.371246,11.73784
2776737,12.31201,2.334478,11.95172
2776740,12.70997,2.269951,12.36989
2776742,12.70997,2.269951,12.36989
2776745,13.10327,2.233357,12.77677
2776749,13.3044,2.223079,12.98299
2776751,13.3044,2.223079,12.98299
2776754,13.51059,2.2101,13.19467
2776756,13.71911,2.195172,13.40885
2776759,13.9267,2.179064,13.6221
2776761,14.27608,2.098445,13.98956
2776764,14.27608,2.098445,13.98956
2776767,14.4552,2.053284,14.17811
2776769,14.81581,1.972487,14.55485
2776772,14.81581,1.972487,14.55485
2776774,14.99566,1.936136,14.74169
2776777,15.36391,1.879823,15.12127
2776780,15.36391,1.879823,15.12127
2776782,15.55114,1.85741,15.31322
2776785,15.92997,1.813481,15.70098
2776787,15.92997,1.813481,15.70098
2776791,16.08653,1.756135,15.86644
2776793,16.08653,1.756135,15.86644
2776796,16.42416,1.662717,16.21832
2776799,16.73384,1.577436,16.53954
2776801,16.73384,1.577436,16.53954
2776804,16.89782,1.5418,16.70826
2776806,17.2467,1.487142,17.06379
2776809,17.2467,1.487142,17.06379
2776811,17.42339,1.462462,17.24347
2776814,17.78569,1.498677,17.60559
2776817,17.78569,1.498677,17.60559
2776819,17.97953,1.506622,17.80017
2776822,18.29348,1.447533,18.12264
2776824,18.29348,1.447533,18.12264
2776827,18.46075,1.423953,18.29333
2776829,18.46075,1.423953,18.29333
2776833,18.72767,1.343338,18.56956
2776836,18.87567,1.31641,18.72088
2776838,18.87567,1.31641,18.72088
2776841,19.11063,1.277482,18.96106
2776843,19.24344,1.266096,19.09576
2776846,19.24344,1.266096,19.09576
2776848,19.48911,1.268412,19.34422
2776851,19.76002,1.277482,19.61701
2776854,19.76002,1.277482,19.61701
2776856,19.85217,1.280694,19.70992
2776859,20.088,1.295582,19.94674
2776861,20.088,1.295582,19.94674
2776864,20.26973,1.310002,20.12872
2776866,20.26973,1.310002,20.12872
2776869,20.3821,1.319231,20.24114
2776872,20.56239,1.333982,20.42125
2776875,20.56239,1.333982,20.42125
2776878,20.67143,1.344503,20.53009
2776880,20.88517,1.348427,20.7439
2776883,20.88517,1.348427,20.7439
2776885,20.99546,1.34523,20.85438
2776888,21.18583,1.354797,21.04498
2776891,21.18583,1.354797,21.04498
2776893,21.36371,1.375155,21.22295
2776896,21.39655,1.394093,21.25547
2776898,21.39655,1.394093,21.25547
2776901,21.51911,1.434496,21.37705
2776903,21.51911,1.434496,21.37705
2776906,21.53159,1.454949,21.38897
2776909,21.62985,1.498808,21.48583
2776911,21.62985,1.498808,21.48583
2776914,21.64063,1.512326,21.49625
2776916,21.72062,1.542816,21.57537
2776920,21.72062,1.542816,21.57537
2776922,21.71342,-1.551165,21.56766
2776925,21.7661,-1.575077,21.61909
2776928,21.7661,-1.575077,21.61909
2776930,21.81631,-1.589547,21.6686
2776933,21.81728,-1.600222,21.66861
2776935,21.81728,-1.600222,21.66861
2776938,21.84634,-1.609611,21.69706
2776940,21.8126,-1.623774,21.66277
2776943,21.8126,-1.623774,21.66277
2776946,21.78416,-1.630149,21.63438
2776948,21.78416,-1.630149,21.63438
2776951,21.768,-1.630749,21.61843
2776953,21.74066,-1.612162,21.5929
2776956,21.74066,-1.612162,21.5929
2776958,21.73215,1.588439,21.58651
2776962,21.75001,1.583874,21.60496
2776965,21.75001,1.583874,21.60496
2776967,21.72082,1.524184,21.57942
2776970,21.72911,1.509736,21.58857
2776972,21.72911,1.509736,21.58857
2776975,21.64609,1.476578,21.506
2776977,21.63468,1.466738,21.4947
2776980,21.63468,1.466738,21.4947
2776983,21.52541,1.433677,21.38535
2776985,21.52541,1.433677,21.38535
2776988,21.49958,1.422578,21.35946
2776990,21.36536,1.397458,21.22506
2776993,21.36536,1.397458,21.22506
2776996,21.32816,1.388749,21.18778
2776998,21.1842,1.378708,21.04365
2777001,21.1842,1.378708,21.04365
2777004,21.14173,1.375724,21.0011
2777007,21.0008,1.378566,20.85989
2777009,21.0008,1.378566,20.85989
2777012,20.95658,1.380693,20.81558
2777015,20.83592,1.377288,20.69483
2777017,20.83592,1.377288,20.69483
2777020,20.7979,1.376577,20.65677
2777022,20.7979,1.376577,20.65677
2777025,20.6865,1.36573,20.54555
2777027,20.64987,1.362144,20.50897
2777030,20.64987,1.362144,20.50897
2777033,20.53097,1.337937,20.38992
2777035,20.43361,1.310898,20.29262
2777038,20.43361,1.310898,20.29262
2777040,20.38887,1.298449,20.24778
2777043,20.29638,1.27993,20.1549
2777046,20.29638,1.27993,20.1549
2777049,20.25022,1.272109,20.10855
2777052,20.18271,1.260519,20.04069
2777054,20.18271,1.260519,20.04069
2777057,20.12914,1.261605,19.98685
2777059,20.12914,1.261605,19.98685
2777062,20.04801,1.264085,19.9052
2777064,20.00333,1.269183,19.85983
2777067,20.00333,1.269183,19.85983
2777070,19.93473,1.27993,19.78991
2777072,19.88335,1.286488,19.73785
2777075,19.88335,1.286488,19.73785
2777077,19.80326,1.298147,19.65652
2777080,19.74599,1.297092,19.59906
2777082,19.74599,1.297092,19.59906
2777085,19.6549,1.296035,19.50759
2777089,19.59763,1.289982,19.45018
2777091,19.59763,1.289982,19.45018
2777094,19.5057,1.281458,19.35793
2777096,19.5057,1.281458,19.35793
2777099,19.44191,1.268566,19.29424
2777101,19.33805,1.249292,19.19041
2777104,19.33805,1.249292,19.19041
2777107,19.2785,1.240647,19.13091
2777109,19.17902,1.226848,19.03137
2777112,19.17902,1.226848,19.03137
2777114,19.11867,1.230193,18.97096
2777117,19.01789,1.234797,18.86993
2777119,19.01789,1.234797,18.86993
2777122,18.92618,1.245841,18.77737
2777125,18.88041,1.254138,18.73093
2777127,18.88041,1.254138,18.73093
2777131,18.81608,1.243797,18.66702
2777133,18.75866,1.235589,18.60991
2777136,18.70651,1.228601,18.55797
2777138,18.64374,1.224133,18.4947
2777141,18.64374,1.224133,18.4947
2777144,18.53256,1.217561,18.38268
2777146,18.46393,1.219167,18.3134
2777149,18.46393,1.219167,18.3134
2777151,18.39999,1.220771,18.24884
2777154,18.26428,1.23448,18.11156
2777156,18.26428,1.23448,18.11156
2777159,18.1949,1.245212,18.04123
2777162,18.13107,1.254294,17.97652
2777164,18.13107,1.254294,17.97652
2777167,17.95162,1.263465,17.79568
2777169,17.95162,1.263465,17.79568
2777172,17.84345,1.265941,17.68676
2777175,17.74676,1.268258,17.58937
2777178,17.74676,1.268258,17.58937
2777181,17.53422,1.271032,17.37502
2777183,17.42447,1.271955,17.26424
2777186,17.42447,1.271955,17.26424
2777188,17.32583,1.273339,17.16462
2777191,17.07153,1.275028,16.90894
2777194,17.07153,1.275028,16.90894
2777196,16.90349,1.259121,16.74144
2777199,16.75455,1.246469,16.59286
2777201,16.75455,1.246469,16.59286
2777204,16.46583,1.292558,16.29869
2777206,16.46583,1.292558,16.29869
2777209,16.32715,1.34392,16.15459
2777212,16.20193,1.389594,16.02432
2777214,16.20193,1.389594,16.02432
2777218,15.87001,1.417341,15.68708
2777220,15.72782,1.430261,15.54246
2777223,15.72782,1.430261,15.54246
2777225,15.34389,1.376293,15.16013
2777228,15.18277,1.357683,14.99936
2777231,15.18277,1.357683,14.99936
2777233,14.78139,1.309105,14.59836
2777236,14.61181,1.291952,14.4287
2777238,14.39283,1.278401,14.20892
2777241,14.19405,1.267949,14.0093
2777243,14.01182,1.259898,13.82614
2777246,14.01182,1.259898,13.82614
2777249,13.56209,1.274722,13.37209
2777251,13.56209,1.274722,13.37209
2777254,13.36796,1.281306,13.17595
2777256,12.91456,1.352773,12.71201
2777260,12.91456,1.352773,12.71201
2777262,12.71648,1.381685,12.50918
2777265,12.22069,1.40667,12.00694
2777268,12.22069,1.40667,12.00694
2777270,12.00367,1.418169,11.78681
2777273,11.47839,1.42944,11.25606
2777275,11.47839,1.42944,11.25606
2777278,11.25211,1.435451,11.02705
2777280,10.71021,1.423403,10.48243
2777283,10.71021,1.423403,10.48243
2777286,10.71021,1.423403,10.48243
2777288,10.71021,1.423403,10.48243
2777291,10.71021,1.423403,10.48243
2777293,10.71021,1.423403,10.48243
2777296,10.71021,1.423403,10.48243
2777298,9.798358,1.397458,9.56423
2777302,9.419285,1.389453,9.181662
2777305,9.419285,1.389453,9.181662
2777307,8.652332,1.365587,8.407422
2777310,8.323716,1.358403,8.074894
2777312,8.323716,1.358403,8.074894
2777315,7.693069,1.395356,7.425473
2777317,7.417937,1.411946,7.141333
2777320,7.417937,1.411946,7.141333
2777323,7.122298,1.422441,6.836384
2777325,6.839711,1.434087,6.544216
2777328,6.573994,1.44591,6.268665
2777330,6.014543,1.467938,5.68734
2777333,6.014543,1.467938,5.68734
2777335,5.76378,1.479226,5.425203
2777338,5.466908,1.476843,5.118258
2777341,5.466908,1.476843,5.118258
2777344,4.929348,1.479887,4.557543
2777347,4.645996,1.465002,4.265858
2777349,4.378599,1.455487,3.988211
2777352,4.120462,1.450234,3.717522
2777354,3.575332,1.456831,3.134628
2777357,3.575332,1.456831,3.134628
2777360,3.333016,1.463131,2.870104
2777362,3.333016,1.463131,2.870104
2777365,2.827086,1.433541,2.329694
2777367,2.570474,1.406252,2.057854
2777370,2.570474,1.406252,2.057854
2777372,2.081871,1.377572,1.509347
2777375,1.855935,1.372876,1.233687
2777378,1.855935,1.372876,1.233687
2777380,1.438583,1.354653,0.6647022
2777383,1.272724,1.343338,0.3805216
2777385,1.272724,1.343338,0.3805216
2777389,1.109417,1.334129,-0.1887116
2777391,1.136772,1.335448,-0.4801054
2777394,1.136772,1.335448,-0.4801054
2777397,1.385786,1.347846,-1.051647
2777399,1.385786,1.347846,-1.051647
2777402,1.573461,1.357683,-1.333395
2777404,2.030087,1.382959,-1.909981
2777407,2.030087,1.382959,-1.909981
2777410,2.27744,1.396898,-2.195529
2777412,2.77354,1.432994,-2.74602
2777415,2.77354,1.432994,-2.74602
2777417,3.02802,1.45468,-3.02103
2777420,3.543537,1.50779,-3.565461
2777422,3.543537,1.50779,-3.565461
2777425,4.043849,1.56398,-4.0849
2777428,4.293271,1.590039,-4.342305
2777431,4.293271,1.590039,-4.342305
2777434,4.566774,1.623894,-4.621817
2777436,4.837036,1.655403,-4.89781
2777439,5.102232,1.676081,-5.172787
2777441,5.365127,1.697659,-5.443846
2777444,5.365127,1.697659,-5.443846
2777447,5.898672,1.743272,-5.990998
2777449,6.159916,1.766246,-6.25774
2777452,6.159916,1.766246,-6.25774
2777454,6.662031,1.811213,-6.769005
2777457,7.163988,1.857305,-7.278341
2777459,7.163988,1.857305,-7.278341
2777462,7.409415,1.880239,-7.526864
2777465,7.888543,1.919079,-8.013296
2777467,7.888543,1.919079,-8.013296
2777470,8.12881,1.939973,-8.256449
2777473,8.12881,1.939973,-8.256449
2777476,8.598181,1.985837,-8.730505
2777478,8.836957,2.009545,-8.971327
2777481,8.836957,2.009545,-8.971327
